jMRUI Data Textfile

Filename: Cr_10mM_test_water_scaling_nWS.txt

PointsInDataset: 2048      
DatasetsInFile: 1         
SamplingInterval: 2.5E-1    
ZeroOrderPhase: 0E0       
BeginTime: 0E0       
TransmitterFrequency: 1.2322E8  
MagneticField: 2.9E0     
TypeOfNucleus: 0E0       
NameOfPatient: Cr_10mM_test_water_scaling_nWS
DateOfExperiment: 
Spectrometer: 
AdditionalInfo: Cr_10mM_test_water_scaling_nWS
SignalNames: Cr_10mM_test_water_scaling_nWS.txt;


Signal and FFT
sig(real)	sig(imag)	fft(real)	fft(imag)
Signal 1 out of 1 in file
54865.1030000	0.0648059
54607.1020000	0.1560995
54350.5080000	-0.0201144
54094.7530000	-0.0600444
53840.4550000	-0.1082160
53587.3320000	-0.1466599
53335.4040000	0.1919009
53084.8830000	-0.1483089
52834.9750000	0.0245906
52586.4640000	0.1022359
52339.6040000	-0.1480516
52093.3570000	0.0553565
51848.3640000	0.1507193
51604.6740000	-0.2094356
51362.3360000	-0.1155341
51120.6890000	0.1537378
50880.2170000	-0.1428791
50641.0090000	-0.0129402
50403.1820000	0.0244583
50166.1500000	-0.1942739
49930.3280000	-0.0245289
49695.5640000	0.0849635
49461.9000000	-0.0788307
49229.3980000	0.0851790
48998.1920000	0.0428127
48767.6580000	-0.1686355
48538.1990000	0.0967084
48310.2330000	0.0123284
48082.8100000	0.1358993
47856.9030000	0.0654022
47632.0430000	0.1058606
47407.7940000	0.1972562
47184.9070000	-0.0765490
46963.2270000	-0.0113834
46742.5400000	0.0274016
46522.6190000	0.0304040
46304.1390000	-0.0592513
46086.3940000	-0.0642916
45869.6090000	-0.2063968
45654.1830000	0.0729263
45439.1590000	0.1671761
45225.5900000	0.0339898
45013.0620000	-0.0848301
44801.6540000	-0.2127700
44590.8190000	-0.0395769
44381.2080000	0.1747168
44172.5920000	-0.0138611
43965.0910000	0.1858214
43758.1580000	-0.0261203
43552.6350000	0.0287662
43348.0160000	-0.1906867
43144.2220000	0.0766103
42941.1440000	0.1947006
42739.5660000	0.1031651
42538.5020000	-0.1420937
42338.5960000	0.1332830
42139.6010000	0.1213872
41941.3880000	0.0652039
41743.9080000	-0.0332745
41547.7240000	-0.2065525
41352.3110000	0.0900135
41157.9500000	0.0910333
40964.6090000	-0.0311372
40771.9360000	0.1245603
40580.0910000	-0.0053435
40389.5100000	-0.1179804
40199.4940000	-0.0782519
40010.6460000	-0.2092532
39822.4480000	-0.1223145
39635.2010000	-0.2084279
39449.0640000	0.2048295
39263.7820000	0.0275201
39079.1770000	0.0245452
38895.1790000	-0.0343809
38712.4320000	-0.0225695
38530.5480000	0.1781198
38349.2460000	-0.1953719
38168.7440000	0.1188275
37989.3420000	-0.1700132
37810.8750000	0.1093891
37633.1220000	-0.0527402
37456.2610000	0.0534575
37279.9170000	0.1419769
37104.9390000	0.0410093
36930.6790000	-0.0891535
36756.5140000	-0.1923878
36584.1510000	-0.1245488
36411.7850000	-0.0607548
36240.8950000	-0.1336126
36070.2250000	-0.0246768
35900.7670000	-0.0367675
35732.0490000	-0.0439795
35564.3280000	-0.0603318
35396.8810000	0.1543951
35230.3970000	-0.0906731
35065.0190000	0.0830844
34900.0620000	0.0516971
34736.1380000	-0.1863876
34572.5330000	0.0688459
34410.3050000	-0.0481060
34248.1250000	-0.0283900
34087.4960000	-0.1879826
33926.9250000	0.1740485
33767.7520000	-0.1714317
33608.7970000	-0.0004729
33450.9860000	0.1498608
33293.5130000	-0.2084552
33136.9830000	-0.1879220
32981.4140000	-0.1825322
32826.1350000	0.1559292
32671.9050000	-0.1456107
32518.0340000	0.1969006
32365.4090000	0.2068447
32213.2200000	-0.1551905
32061.7000000	-0.1199165
31910.9030000	-0.1829091
31760.9440000	0.1829636
31611.6670000	-0.1971214
31462.8800000	-0.1185667
31314.9610000	0.1617592
31167.8720000	-0.1043523
31021.4050000	0.1657275
30875.6970000	-0.1792290
30730.5180000	-0.1454703
30586.0390000	-0.1293604
30442.3060000	0.0546796
30298.8570000	0.1567951
30156.5340000	0.0090932
30014.8710000	-0.1125593
29873.6340000	-0.0722550
29732.9690000	-0.1411077
29593.4370000	0.1010823
29454.3060000	-0.1621636
29315.9260000	-0.0987198
29178.1460000	0.0969182
29040.7530000	0.1790443
28904.2160000	0.1905755
28768.6050000	-0.1377041
28633.2880000	-0.1372769
28498.3810000	0.1745883
28364.7130000	-0.1596468
28231.1940000	0.0026749
28098.3650000	-0.1435760
27966.4650000	0.1014443
27835.1550000	0.1003934
27703.8370000	0.0323130
27573.8590000	0.1252722
27444.4120000	0.1496390
27315.2900000	-0.1140370
27187.0020000	0.1961877
27058.6910000	0.1128064
26931.8290000	0.0958725
26805.0450000	0.0020742
26679.1980000	0.0117112
26553.9560000	-0.1954973
26428.6250000	-0.0763986
26304.4140000	0.1910790
26180.9080000	-0.1864996
26057.6250000	0.1056418
25935.3990000	-0.1360448
25813.5040000	0.1900287
25691.9530000	0.1712205
25571.2750000	0.0665948
25450.8110000	0.1132373
25331.1780000	0.1554897
25212.4810000	0.1719820
25093.8980000	-0.1772492
24975.6940000	0.1687643
24858.2770000	-0.0391464
24741.3890000	0.1440122
24624.9800000	-0.1145459
24509.3630000	0.1440289
24394.0660000	0.2134326
24279.6450000	-0.2018080
24165.1370000	-0.0437203
24051.5360000	-0.1229634
23938.8050000	0.0921102
23826.1900000	0.1323087
23713.9810000	0.1034644
23602.5350000	-0.1248348
23491.7830000	0.0387102
23381.1650000	-0.1531026
23271.1420000	-0.1831173
23162.0090000	-0.1775076
23052.7530000	0.1972069
22944.3890000	0.1996804
22836.6860000	0.1624708
22729.1730000	-0.0779019
22622.4650000	0.1073670
22516.0770000	-0.0219062
22410.4210000	0.1088755
22305.0660000	0.0149993
22200.2000000	0.2117812
22095.8570000	0.1900759
21991.8380000	0.1984096
21888.2250000	0.1660558
21785.4950000	-0.0338561
21683.1000000	-0.1882695
21581.1790000	-0.1230042
21479.6920000	-0.0911187
21378.6310000	-0.0063971
21278.2310000	-0.0480040
21178.1720000	0.0279109
21078.6000000	0.0340304
20979.5760000	0.0494243
20880.9400000	-0.1381175
20782.5550000	-0.0008666
20684.9460000	0.0119551
20587.6490000	0.0828894
20490.9690000	0.0614685
20394.5910000	-0.0686890
20298.6940000	0.0322762
20203.5660000	0.1756911
20108.4220000	-0.2076632
20013.9620000	-0.0066950
19919.8170000	-0.0287580
19826.0940000	0.1458971
19732.8780000	0.1023357
19640.0340000	0.1773463
19547.9580000	-0.0847653
19455.7850000	0.0332998
19364.5210000	0.0047443
19273.5080000	0.2061035
19182.6660000	0.2058428
19092.5750000	0.1038987
19002.7650000	0.2130460
18913.4290000	0.1872748
18824.6120000	-0.1057318
18736.0620000	-0.1529312
18647.9190000	-0.0953498
18560.1230000	0.1214765
18473.1230000	-0.0684957
18386.0370000	-0.0608728
18299.9610000	0.0821906
18213.7240000	-0.1921849
18128.1750000	-0.1159117
18042.8620000	0.0224877
17957.8160000	-0.0269758
17873.6930000	-0.0283657
17789.7540000	0.1377205
17706.0980000	0.1247598
17622.8800000	0.0582293
17540.0790000	-0.1707815
17457.2930000	0.0292778
17375.5170000	0.1715616
17293.5700000	-0.1653284
17212.3200000	-0.1098411
17131.5740000	0.1844805
17051.0180000	0.1994143
16970.5740000	0.2017587
16890.8720000	-0.0770432
16811.5200000	-0.0212247
16732.5930000	-0.0215882
16653.6920000	0.0478164
16575.5270000	-0.1004779
16497.4760000	-0.1058780
16419.9820000	-0.1202158
16343.1110000	-0.1617888
16266.1790000	0.0789668
16189.5280000	-0.0154882
16113.4710000	-0.1296274
16037.6000000	0.1075083
15962.1680000	-0.1493543
15887.4270000	0.1990450
15812.6810000	0.0216672
15738.3730000	-0.0450580
15664.1640000	0.1677073
15590.4880000	0.1034042
15517.3820000	0.0011239
15444.4990000	-0.1705983
15371.7130000	-0.0046126
15299.6120000	-0.2027944
15227.6480000	0.2108977
15155.6910000	0.1422476
15084.5190000	-0.0474293
15013.6160000	-0.0790572
14943.2540000	0.0954959
14873.1820000	0.0378709
14802.9180000	-0.0470538
14733.6670000	0.0310479
14664.2530000	0.0138726
14595.3100000	-0.2073528
14526.5600000	0.2004150
14458.4660000	0.1416364
14390.1500000	0.2077968
14322.7570000	-0.0788886
14255.5890000	-0.1285338
14188.1050000	0.1337091
14121.6220000	0.0692536
14055.4250000	0.1966186
13989.0040000	-0.0164158
13923.4220000	0.0972350
13858.0630000	0.0704615
13792.7450000	0.0994926
13727.9420000	-0.1256882
13663.3230000	0.0804041
13599.0350000	0.1985180
13535.1690000	0.0736509
13471.4850000	-0.0877029
13408.2240000	0.0221245
13345.2980000	0.0768718
13282.6430000	0.1762258
13220.0040000	-0.0751263
13157.7670000	0.1776536
13096.1130000	-0.0510048
13034.5280000	-0.0827281
12973.2930000	-0.2013380
12912.1100000	-0.0238562
12851.4500000	0.0552832
12790.9310000	-0.1110682
12730.8920000	0.0431700
12671.0450000	-0.0502763
12611.4570000	0.1661274
12552.1130000	-0.1890296
12493.0000000	-0.0859999
12434.5080000	0.0286954
12376.0840000	-0.1719845
12317.9480000	-0.0934846
12259.7100000	0.0085117
12202.1880000	-0.0213763
12145.0870000	0.0950824
12087.8940000	0.0509878
12030.7850000	0.0033534
11974.2740000	-0.1819005
11918.1580000	0.0406581
11861.9290000	-0.0530880
11806.3210000	-0.1223484
11751.0650000	0.1509584
11695.6410000	0.0456027
11640.6940000	-0.0860702
11585.9060000	0.0518762
11531.2780000	0.1742121
11477.2530000	-0.2013045
11423.2040000	-0.0139236
11369.7070000	0.0491041
11315.9770000	0.2121281
11262.8790000	0.1962271
11209.9920000	-0.1776840
11157.4430000	0.1772903
11104.7160000	-0.1449378
11052.6350000	-0.1759679
11000.7860000	-0.1230779
10948.7840000	0.0291972
10897.6270000	-0.2094806
10846.0530000	0.0711740
10795.0800000	0.0178470
10744.6110000	0.1092971
10694.1000000	-0.0613459
10643.6300000	0.0616741
10593.6340000	0.0479567
10543.5630000	0.1422254
10494.1140000	-0.0553156
10445.0820000	-0.2035451
10395.6480000	0.1294600
10346.9050000	-0.0407052
10298.4240000	0.1185994
10250.0960000	0.0429017
10201.7010000	0.0457291
10153.8360000	0.0398956
10106.0660000	-0.1664660
10058.4490000	0.0221006
10011.3220000	-0.0411217
9964.1973000	-0.0413913
9917.1965000	0.0524636
9870.4596000	0.0769230
9824.4079000	0.0832252
9778.1116000	0.1674891
9732.2485000	0.0959032
9686.2309000	0.1335577
9640.9361000	-0.0687250
9595.6087000	-0.0161052
9550.3779000	0.1243218
9505.5363000	0.1201488
9460.8814000	-0.1914743
9416.2449000	0.0226284
9371.9661000	-0.1666873
9328.1500000	0.0907417
9283.9690000	0.2053398
9240.5102000	0.0482903
9196.8707000	-0.0972341
9153.8514000	0.0197507
9110.7125000	-0.2053451
9067.8911000	0.2075014
9025.3684000	-0.1232225
8982.9424000	-0.0655147
8940.6933000	0.0909157
8898.6227000	0.0891495
