jMRUI Data Textfile

Filename: Cr_10mM_test_water_scaling_WS.txt

PointsInDataset: 2048      
DatasetsInFile: 1         
SamplingInterval: 2.5E-1    
ZeroOrderPhase: 0E0       
BeginTime: 0E0       
TransmitterFrequency: 1.2322E8  
MagneticField: 2.9E0     
TypeOfNucleus: 0E0       
NameOfPatient: Cr_10mM_test_water_scaling_WS
DateOfExperiment: 
Spectrometer: 
AdditionalInfo: Cr_10mM_test_water_scaling_WS
SignalNames: Cr_10mM_test_water_scaling_WS.txt;


Signal and FFT
sig(real)	sig(imag)	fft(real)	fft(imag)
Signal 1 out of 1 in file
20.6942560	-6.0112948
39.8953000	-10.0572710
35.7227030	-19.1377060
29.2754360	-26.7150790
21.2456360	-32.1845810
12.2041180	-35.0763380
2.9431820	-35.3547400
-5.6804315	-33.1013220
-12.9106970	-28.7019440
-18.4545560	-22.6450030
-21.6793710	-15.6704470
-22.7184070	-8.3195379
-21.3803250	-1.5509860
-18.2738490	4.1579491
-13.6904070	8.1782014
-8.3209409	10.3926650
-2.8228869	10.4011010
2.0970421	8.6152822
5.8308188	5.1668187
7.9853707	0.5564363
8.2602406	-4.4526538
6.5717729	-9.4234543
3.0911736	-13.4691410
-1.9313620	-16.2143530
-7.7590573	-17.2565980
-13.9189000	-16.1614140
-19.8307350	-12.9861760
-24.6374620	-7.9440814
-27.8849180	-1.3721534
-29.0829540	6.0571305
-28.0303840	13.8787660
-24.7193490	21.3831090
-19.2930020	27.7776840
-12.2166780	32.5458160
-3.9564750	35.1838110
4.8105651	35.4693590
13.3548730	33.3456720
21.0138560	29.0431860
27.1807310	22.8038550
31.4138340	15.2171250
33.3475640	6.8929003
32.8881180	-1.4270667
30.2827460	-9.1585839
25.8169440	-15.6085010
19.8766660	-20.3549930
13.1442120	-23.0642790
6.1852674	-23.7006740
-0.2871570	-22.3700410
-5.6229669	-19.2504380
-9.5778411	-14.9464960
-11.7262850	-9.8919154
-12.1003670	-4.7161252
-10.6671840	-0.0114972
-7.8674164	3.7696452
-3.9555266	5.9781595
0.3204370	6.7024132
4.5930260	5.6098786
8.1795116	2.9892929
10.6749680	-0.8024201
11.5299290	-5.4617454
10.7447790	-10.4509330
8.3018920	-15.0164180
4.1150432	-18.7935860
-1.1417443	-21.1802660
-7.2840782	-21.8473850
-13.5732120	-20.6630700
-19.5154750	-17.5805730
-24.4905880	-12.7821890
-27.9869820	-6.5710175
-29.6309530	0.5603175
-29.1998180	7.9811690
-26.7907820	15.1876770
-22.4590450	21.4085480
-16.6190830	26.2978490
-9.6065852	29.3833700
-2.2029144	30.4242920
5.2912719	29.5114620
12.0235590	26.5614570
17.5233380	22.0295080
21.5048600	16.2664590
23.6064560	9.8721947
23.8326680	3.3843236
22.1996290	-2.6089882
19.1055070	-7.6132830
14.8999420	-11.2604500
10.0328470	-13.3112370
5.0735498	-13.7249080
0.5057374	-12.4746620
-3.0977172	-10.0501170
-5.4585721	-6.6050146
-6.3710449	-2.7112568
-5.8412275	1.0227403
-3.9994136	4.2959862
-0.9288588	6.6125917
2.8433348	7.6885513
6.7732397	7.2014964
10.4679440	5.3322498
13.4813870	2.0795288
15.4014070	-2.1783115
15.8133490	-7.0249197
14.6318570	-12.0551160
11.8685500	-16.7810390
7.6751284	-20.5333970
2.4088099	-23.0506780
-3.6294154	-23.9885080
-9.7450109	-23.2014370
-15.6438640	-20.6943890
-20.6379370	-16.5350520
-24.3227500	-11.1734880
-26.4714160	-4.9197047
-26.8894950	1.6774267
-25.4421010	8.1048366
-22.2756450	13.9111810
-17.8802750	18.4523700
-12.3349990	21.6638060
-6.4219374	23.1052380
-0.4161992	22.8868840
5.0479358	21.0447220
9.5601914	17.9629370
12.7684580	13.7955360
14.5864770	9.1269719
14.8511120	4.3538828
13.7416730	0.0108842
11.4386950	-3.4844804
8.2951950	-5.8808793
4.7603540	-6.9934165
1.2169367	-6.8072768
-1.8668220	-5.3355602
-4.1070606	-2.8762985
-5.2692639	0.1506359
-5.2068880	3.4222650
-3.7803493	6.6032890
-1.2942296	9.0556243
1.9839042	10.5715150
5.8830824	10.9573540
9.8737523	9.9314945
13.5715230	7.6834461
16.3843210	4.1173660
18.1957030	-0.2386454
18.6519420	-5.1974875
17.6763210	-10.2107030
15.2056070	-14.9586710
11.4081430	-18.8481650
6.6461992	-21.5872270
1.0857573	-22.9636330
-4.5667336	-22.8555680
-10.0441640	-21.0872830
-14.8179310	-17.9613410
-18.5482570	-13.6660520
-20.8875280	-8.5050698
-21.8588100	-3.0933679
-21.1942810	2.3296986
-19.1926920	7.1319098
-15.9644500	11.1397520
-11.9383580	13.9757620
-7.4687589	15.3915340
-2.9584448	15.4842420
1.0782719	14.3428280
4.4875430	12.0959970
6.8057535	9.1116039
7.9157319	5.7547049
7.8938972	2.3567993
6.7478172	-0.5180388
4.7155270	-2.7741081
2.1523336	-4.0689689
-0.7293437	-4.2995913
-3.3555613	-3.3998931
-5.5836924	-1.4882326
-7.0154165	1.0757713
-7.3494050	4.1974423
-6.6470885	7.3891540
-4.7659223	10.2031060
-1.8576555	12.5049040
1.6890321	13.7636850
5.6552823	14.0184600
9.6944669	12.9004240
13.4045800	10.6386580
16.4555290	7.2874442
18.4886700	3.0942381
19.2620010	-1.5642256
18.6772470	-6.3741901
16.7581120	-10.9393410
13.7052150	-14.8106960
9.6734477	-17.7150920
4.9983321	-19.4221050
0.0959310	-19.8348440
-4.6178941	-18.8404940
-8.8197578	-16.7086010
-12.1827460	-13.4720080
-14.5462070	-9.5840719
-15.6030490	-5.3539822
-15.4920810	-1.1716799
-14.1597380	2.5851221
-11.9596530	5.7042019
-9.0395589	7.8021707
-5.8445237	8.9373019
-2.6216576	8.9399483
0.2483528	7.9789900
2.4055631	6.2471426
3.7998469	3.8540606
4.2376590	1.3555230
3.6451356	-1.1054938
2.2471604	-3.0753804
0.1956114	-4.4302793
-2.2332809	-4.8988169
-4.8649061	-4.4057949
-7.1340321	-3.0019226
-8.9712314	-0.7661082
-9.9615665	2.0942555
-10.0041420	5.3335276
-9.0307771	8.5240299
-7.0161017	11.4673250
-4.1506227	13.7008610
-0.6302662	15.0795180
3.3649452	15.4714050
7.2929724	14.6940800
11.0152860	12.7298990
14.1131390	9.9293216
16.2503540	6.1815452
17.3671660	2.0666131
17.3197920	-2.2117360
16.1677610	-6.3661755
13.8239660	-9.8720744
10.8050720	-12.6852840
7.0974435	-14.4861480
3.2273669	-15.2159710
-0.6424655	-14.7860310
-4.0572224	-13.3222660
-6.8605607	-11.1461040
-8.7941267	-8.3202763
-9.7022782	-5.2663122
-9.6984298	-2.2035397
-8.7491417	0.5740644
-7.1754820	2.7323749
-5.0099598	4.1091840
-2.6346183	4.6904428
-0.4204637	4.3616047
1.5300189	3.2699451
2.8165378	1.5861024
3.4095712	-0.4528702
3.2266041	-2.6351062
2.1713287	-4.5836912
0.4038546	-6.0594767
-1.8098163	-6.8593325
-4.4063289	-6.8855248
-6.8984314	-6.0537096
-9.1875166	-4.4402113
-10.8814430	-2.0068082
-11.8890410	0.9588994
-11.9586840	4.2058667
-11.0426670	7.4087156
-9.2778517	10.3386600
-6.6334728	12.7382080
-3.3994697	14.3699190
0.2234343	14.9595090
3.9019870	14.6344130
7.3374861	13.2367120
10.3193990	10.9539200
12.5905600	8.0605290
13.9168890	4.6840025
14.1935370	1.1094523
13.5864410	-2.3910756
12.0794480	-5.4197377
9.7882703	-7.8723069
7.0591410	-9.4704246
4.1536849	-10.1751560
1.2524465	-10.0799070
-1.3694820	-9.0918897
-3.3414892	-7.5681033
-4.7035620	-5.4957223
-5.3598066	-3.2667426
-5.0860530	-1.1624463
-4.2524655	0.6876892
-2.8080155	2.0934507
-1.0668303	2.6999914
0.7983223	2.7747597
2.4632010	2.0157479
3.8184928	0.7357206
4.5288735	-1.0697987
4.6798331	-3.1030186
3.9583967	-5.1143858
2.6136346	-6.9563587
0.7308954	-8.3063314
-1.6771850	-8.9898934
-4.3285440	-8.9168612
-6.9420315	-8.0510081
-9.2250434	-6.3609844
-11.0070050	-4.0855545
-12.1028270	-1.2408297
-12.4112430	1.8090429
-11.8179160	4.9139783
-10.4503340	7.8057839
-8.2643903	10.2232470
-5.5387101	11.8570230
-2.4637549	12.7785610
0.7069500	12.8275770
3.7612226	12.0355200
6.4145730	10.4341760
8.4505594	8.2215532
9.7236838	5.5682926
10.3038140	2.8530098
9.9948587	0.0802378
9.0221923	-2.2310572
7.4217698	-4.1239102
5.4620797	-5.3805758
3.3340202	-6.0037440
1.2431698	-5.8783261
-0.5256296	-5.1107816
-1.8034941	-3.8433573
-2.6603726	-2.2774189
-2.7397777	-0.6146066
-2.2743465	0.9873175
-1.3006621	2.1675722
0.1068771	2.9523315
1.7758118	3.1494103
3.4206964	2.7067544
4.8954833	1.6855112
5.9666126	0.1349977
6.4727510	-1.8106942
6.3082019	-3.9558658
5.5712673	-5.9884122
4.0737414	-7.7686252
2.0977238	-9.0905996
-0.2842633	-9.8653049
-2.8495262	-9.8923080
-5.3706946	-9.2680882
-7.6773869	-7.8132054
-9.5714207	-5.8328602
-10.8088960	-3.3128478
-11.3449770	-0.6249292
-11.0970960	2.1301592
-10.1343560	4.7942312
-8.5659910	6.9415225
-6.4400068	8.6142786
-3.9524104	9.6480360
-1.3806217	9.9087008
1.0593120	9.4783729
3.1807817	8.4571954
4.8678368	6.8775159
5.9542405	5.0183687
6.5158343	2.9089001
6.2833373	1.0146318
5.5816902	-0.7163044
4.4273830	-2.0979637
3.0022782	-2.8592923
1.4624076	-3.0838329
-0.0182634	-2.7748124
-1.1926553	-1.9388132
-1.9147982	-0.8413180
-2.1940686	0.5424739
-2.0017274	1.9107933
-1.1785340	3.1015587
-0.0042253	3.9949798
1.4887787	4.4599649
3.1784263	4.3896037
4.7574734	3.6972959
6.1857798	2.4836059
7.2585480	0.8112270
7.7090761	-1.1606081
7.6645063	-3.2097060
6.9497250	-5.2573655
5.6388857	-7.1628625
3.7984466	-8.5853862
1.6307458	-9.4910503
-0.7828135	-9.7129292
-3.1389659	-9.2944549
-5.3444424	-8.2831615
-7.1860804	-6.6906536
-8.4360523	-4.6713210
-9.1460634	-2.4373329
-9.2326314	-0.1377543
-8.6513383	2.1228114
-7.5455251	3.9651426
-6.0439599	5.4831553
-4.1333743	6.3508158
-2.2578471	6.7896994
-0.4052641	6.4751818
1.2518376	5.8341809
2.5220175	4.6999376
3.2966927	3.2951485
3.5418331	1.8799016
3.2873322	0.4700315
2.6633077	-0.7178384
1.6772627	-1.4312741
0.5479372	-1.8312135
-0.7005132	-1.7190138
-1.7303782	-1.1470797
-2.5807925	-0.2294731
-2.9395927	0.9655658
-2.9310883	2.3163973
-2.3867114	3.5854321
-1.4495578	4.6546407
-0.1312063	5.4732263
1.4847965	5.7999837
3.1903335	5.6505127
4.8291651	4.9023187
6.3060818	3.7623241
7.3834129	2.1542797
7.9074860	0.2676493
7.9507951	-1.6915861
7.5295039	-3.7323170
6.4225015	-5.5309883
4.8929275	-6.9544383
3.0548692	-7.8884202
1.1038268	-8.3827041
-1.0422667	-8.2305584
-2.9215738	-7.6158052
-4.5648742	-6.4247053
-5.8287588	-4.9266138
-6.5662292	-3.1531671
-6.7635413	-1.3732082
-6.4853226	0.3776623
-5.6736332	1.8656677
-4.5665689	3.0046817
-3.3141824	3.6833126
-1.8515953	3.9993544
-0.5797284	3.7964042
0.5778893	3.2364754
1.3323267	2.2844951
1.8220957	1.3183951
1.7927865	0.2100680
1.4281339	-0.7921964
0.6544252	-1.4759411
-0.2277801	-1.9204265
-1.3283039	-1.9752692
-2.4338987	-1.5889762
-3.2992656	-0.8355333
-3.9263522	0.1816111
-4.1837601	1.4362123
-4.0106351	2.8546102
-3.3238345	4.0962051
-2.3758116	5.2581074
-0.9935212	6.0182424
0.5740591	6.4470460
2.2707429	6.3363259
3.9009298	5.7786764
5.3252874	4.7326905
