 $NMID ID='Cr_10mM_test_water_scaling', FMTDAT='(8E13.5)'
 TRAMP=1, VOLUME=1 $END
  5.48651E+04 -6.48059E-02  5.46071E+04 -1.56100E-01  5.43505E+04  2.01144E-02  5.40948E+04  6.00444E-02
  5.38405E+04  1.08216E-01  5.35873E+04  1.46660E-01  5.33354E+04 -1.91901E-01  5.30849E+04  1.48309E-01
  5.28350E+04 -2.45906E-02  5.25865E+04 -1.02236E-01  5.23396E+04  1.48052E-01  5.20934E+04 -5.53565E-02
  5.18484E+04 -1.50719E-01  5.16047E+04  2.09436E-01  5.13623E+04  1.15534E-01  5.11207E+04 -1.53738E-01
  5.08802E+04  1.42879E-01  5.06410E+04  1.29402E-02  5.04032E+04 -2.44583E-02  5.01661E+04  1.94274E-01
  4.99303E+04  2.45289E-02  4.96956E+04 -8.49635E-02  4.94619E+04  7.88307E-02  4.92294E+04 -8.51790E-02
  4.89982E+04 -4.28127E-02  4.87677E+04  1.68636E-01  4.85382E+04 -9.67084E-02  4.83102E+04 -1.23284E-02
  4.80828E+04 -1.35899E-01  4.78569E+04 -6.54022E-02  4.76320E+04 -1.05861E-01  4.74078E+04 -1.97256E-01
  4.71849E+04  7.65490E-02  4.69632E+04  1.13834E-02  4.67425E+04 -2.74016E-02  4.65226E+04 -3.04040E-02
  4.63041E+04  5.92513E-02  4.60864E+04  6.42916E-02  4.58696E+04  2.06397E-01  4.56542E+04 -7.29263E-02
  4.54392E+04 -1.67176E-01  4.52256E+04 -3.39898E-02  4.50131E+04  8.48301E-02  4.48017E+04  2.12770E-01
  4.45908E+04  3.95769E-02  4.43812E+04 -1.74717E-01  4.41726E+04  1.38611E-02  4.39651E+04 -1.85821E-01
  4.37582E+04  2.61203E-02  4.35526E+04 -2.87662E-02  4.33480E+04  1.90687E-01  4.31442E+04 -7.66103E-02
  4.29411E+04 -1.94701E-01  4.27396E+04 -1.03165E-01  4.25385E+04  1.42094E-01  4.23386E+04 -1.33283E-01
  4.21396E+04 -1.21387E-01  4.19414E+04 -6.52039E-02  4.17439E+04  3.32745E-02  4.15477E+04  2.06553E-01
  4.13523E+04 -9.00135E-02  4.11580E+04 -9.10333E-02  4.09646E+04  3.11372E-02  4.07719E+04 -1.24560E-01
  4.05801E+04  5.34346E-03  4.03895E+04  1.17980E-01  4.01995E+04  7.82519E-02  4.00106E+04  2.09253E-01
  3.98224E+04  1.22314E-01  3.96352E+04  2.08428E-01  3.94491E+04 -2.04830E-01  3.92638E+04 -2.75201E-02
  3.90792E+04 -2.45452E-02  3.88952E+04  3.43809E-02  3.87124E+04  2.25695E-02  3.85305E+04 -1.78120E-01
  3.83492E+04  1.95372E-01  3.81687E+04 -1.18827E-01  3.79893E+04  1.70013E-01  3.78109E+04 -1.09389E-01
  3.76331E+04  5.27402E-02  3.74563E+04 -5.34575E-02  3.72799E+04 -1.41977E-01  3.71049E+04 -4.10093E-02
  3.69307E+04  8.91535E-02  3.67565E+04  1.92388E-01  3.65842E+04  1.24549E-01  3.64118E+04  6.07548E-02
  3.62409E+04  1.33613E-01  3.60702E+04  2.46768E-02  3.59008E+04  3.67675E-02  3.57320E+04  4.39795E-02
  3.55643E+04  6.03318E-02  3.53969E+04 -1.54395E-01  3.52304E+04  9.06731E-02  3.50650E+04 -8.30844E-02
  3.49001E+04 -5.16971E-02  3.47361E+04  1.86388E-01  3.45725E+04 -6.88459E-02  3.44103E+04  4.81060E-02
  3.42481E+04  2.83900E-02  3.40875E+04  1.87983E-01  3.39269E+04 -1.74049E-01  3.37678E+04  1.71432E-01
  3.36088E+04  4.72857E-04  3.34510E+04 -1.49861E-01  3.32935E+04  2.08455E-01  3.31370E+04  1.87922E-01
  3.29814E+04  1.82532E-01  3.28261E+04 -1.55929E-01  3.26719E+04  1.45611E-01  3.25180E+04 -1.96901E-01
  3.23654E+04 -2.06845E-01  3.22132E+04  1.55190E-01  3.20617E+04  1.19917E-01  3.19109E+04  1.82909E-01
  3.17609E+04 -1.82964E-01  3.16117E+04  1.97121E-01  3.14629E+04  1.18567E-01  3.13150E+04 -1.61759E-01
  3.11679E+04  1.04352E-01  3.10214E+04 -1.65728E-01  3.08757E+04  1.79229E-01  3.07305E+04  1.45470E-01
  3.05860E+04  1.29360E-01  3.04423E+04 -5.46796E-02  3.02989E+04 -1.56795E-01  3.01565E+04 -9.09318E-03
  3.00149E+04  1.12559E-01  2.98736E+04  7.22550E-02  2.97330E+04  1.41108E-01  2.95934E+04 -1.01082E-01
  2.94543E+04  1.62164E-01  2.93159E+04  9.87198E-02  2.91781E+04 -9.69182E-02  2.90408E+04 -1.79044E-01
  2.89042E+04 -1.90576E-01  2.87686E+04  1.37704E-01  2.86333E+04  1.37277E-01  2.84984E+04 -1.74588E-01
  2.83647E+04  1.59647E-01  2.82312E+04 -2.67494E-03  2.80984E+04  1.43576E-01  2.79665E+04 -1.01444E-01
  2.78352E+04 -1.00393E-01  2.77038E+04 -3.23130E-02  2.75739E+04 -1.25272E-01  2.74444E+04 -1.49639E-01
  2.73153E+04  1.14037E-01  2.71870E+04 -1.96188E-01  2.70587E+04 -1.12806E-01  2.69318E+04 -9.58725E-02
  2.68050E+04 -2.07419E-03  2.66792E+04 -1.17112E-02  2.65540E+04  1.95497E-01  2.64286E+04  7.63986E-02
  2.63044E+04 -1.91079E-01  2.61809E+04  1.86500E-01  2.60576E+04 -1.05642E-01  2.59354E+04  1.36045E-01
  2.58135E+04 -1.90029E-01  2.56920E+04 -1.71221E-01  2.55713E+04 -6.65948E-02  2.54508E+04 -1.13237E-01
  2.53312E+04 -1.55490E-01  2.52125E+04 -1.71982E-01  2.50939E+04  1.77249E-01  2.49757E+04 -1.68764E-01
  2.48583E+04  3.91464E-02  2.47414E+04 -1.44012E-01  2.46250E+04  1.14546E-01  2.45094E+04 -1.44029E-01
  2.43941E+04 -2.13433E-01  2.42796E+04  2.01808E-01  2.41651E+04  4.37203E-02  2.40515E+04  1.22963E-01
  2.39388E+04 -9.21102E-02  2.38262E+04 -1.32309E-01  2.37140E+04 -1.03464E-01  2.36025E+04  1.24835E-01
  2.34918E+04 -3.87102E-02  2.33812E+04  1.53103E-01  2.32711E+04  1.83117E-01  2.31620E+04  1.77508E-01
  2.30528E+04 -1.97207E-01  2.29444E+04 -1.99680E-01  2.28367E+04 -1.62471E-01  2.27292E+04  7.79019E-02
  2.26225E+04 -1.07367E-01  2.25161E+04  2.19062E-02  2.24104E+04 -1.08876E-01  2.23051E+04 -1.49993E-02
  2.22002E+04 -2.11781E-01  2.20959E+04 -1.90076E-01  2.19918E+04 -1.98410E-01  2.18882E+04 -1.66056E-01
  2.17855E+04  3.38561E-02  2.16831E+04  1.88270E-01  2.15812E+04  1.23004E-01  2.14797E+04  9.11187E-02
  2.13786E+04  6.39710E-03  2.12782E+04  4.80040E-02  2.11782E+04 -2.79109E-02  2.10786E+04 -3.40304E-02
  2.09796E+04 -4.94243E-02  2.08809E+04  1.38117E-01  2.07826E+04  8.66555E-04  2.06849E+04 -1.19551E-02
  2.05876E+04 -8.28894E-02  2.04910E+04 -6.14685E-02  2.03946E+04  6.86890E-02  2.02987E+04 -3.22762E-02
  2.02036E+04 -1.75691E-01  2.01084E+04  2.07663E-01  2.00140E+04  6.69500E-03  1.99198E+04  2.87580E-02
  1.98261E+04 -1.45897E-01  1.97329E+04 -1.02336E-01  1.96400E+04 -1.77346E-01  1.95480E+04  8.47653E-02
  1.94558E+04 -3.32998E-02  1.93645E+04 -4.74426E-03  1.92735E+04 -2.06103E-01  1.91827E+04 -2.05843E-01
  1.90926E+04 -1.03899E-01  1.90028E+04 -2.13046E-01  1.89134E+04 -1.87275E-01  1.88246E+04  1.05732E-01
  1.87361E+04  1.52931E-01  1.86479E+04  9.53498E-02  1.85601E+04 -1.21477E-01  1.84731E+04  6.84957E-02
  1.83860E+04  6.08728E-02  1.83000E+04 -8.21906E-02  1.82137E+04  1.92185E-01  1.81282E+04  1.15912E-01
  1.80429E+04 -2.24877E-02  1.79578E+04  2.69758E-02  1.78737E+04  2.83657E-02  1.77898E+04 -1.37721E-01
  1.77061E+04 -1.24760E-01  1.76229E+04 -5.82293E-02  1.75401E+04  1.70782E-01  1.74573E+04 -2.92778E-02
  1.73755E+04 -1.71562E-01  1.72936E+04  1.65328E-01  1.72123E+04  1.09841E-01  1.71316E+04 -1.84481E-01
  1.70510E+04 -1.99414E-01  1.69706E+04 -2.01759E-01  1.68909E+04  7.70432E-02  1.68115E+04  2.12247E-02
  1.67326E+04  2.15882E-02  1.66537E+04 -4.78164E-02  1.65755E+04  1.00478E-01  1.64975E+04  1.05878E-01
  1.64200E+04  1.20216E-01  1.63431E+04  1.61789E-01  1.62662E+04 -7.89668E-02  1.61895E+04  1.54882E-02
  1.61135E+04  1.29627E-01  1.60376E+04 -1.07508E-01  1.59622E+04  1.49354E-01  1.58874E+04 -1.99045E-01
  1.58127E+04 -2.16672E-02  1.57384E+04  4.50580E-02  1.56642E+04 -1.67707E-01  1.55905E+04 -1.03404E-01
  1.55174E+04 -1.12391E-03  1.54445E+04  1.70598E-01  1.53717E+04  4.61258E-03  1.52996E+04  2.02794E-01
  1.52276E+04 -2.10898E-01  1.51557E+04 -1.42248E-01  1.50845E+04  4.74293E-02  1.50136E+04  7.90572E-02
  1.49433E+04 -9.54959E-02  1.48732E+04 -3.78709E-02  1.48029E+04  4.70538E-02  1.47337E+04 -3.10479E-02
  1.46643E+04 -1.38726E-02  1.45953E+04  2.07353E-01  1.45266E+04 -2.00415E-01  1.44585E+04 -1.41636E-01
  1.43901E+04 -2.07797E-01  1.43228E+04  7.88886E-02  1.42556E+04  1.28534E-01  1.41881E+04 -1.33709E-01
  1.41216E+04 -6.92536E-02  1.40554E+04 -1.96619E-01  1.39890E+04  1.64158E-02  1.39234E+04 -9.72350E-02
  1.38581E+04 -7.04615E-02  1.37927E+04 -9.94926E-02  1.37279E+04  1.25688E-01  1.36633E+04 -8.04041E-02
  1.35990E+04 -1.98518E-01  1.35352E+04 -7.36509E-02  1.34715E+04  8.77029E-02  1.34082E+04 -2.21245E-02
  1.33453E+04 -7.68718E-02  1.32826E+04 -1.76226E-01  1.32200E+04  7.51263E-02  1.31578E+04 -1.77654E-01
  1.30961E+04  5.10048E-02  1.30345E+04  8.27281E-02  1.29733E+04  2.01338E-01  1.29121E+04  2.38562E-02
  1.28514E+04 -5.52832E-02  1.27909E+04  1.11068E-01  1.27309E+04 -4.31700E-02  1.26710E+04  5.02763E-02
  1.26115E+04 -1.66127E-01  1.25521E+04  1.89030E-01  1.24930E+04  8.59999E-02  1.24345E+04 -2.86954E-02
  1.23761E+04  1.71985E-01  1.23179E+04  9.34846E-02  1.22597E+04 -8.51173E-03  1.22022E+04  2.13763E-02
  1.21451E+04 -9.50825E-02  1.20879E+04 -5.09878E-02  1.20308E+04 -3.35341E-03  1.19743E+04  1.81900E-01
  1.19182E+04 -4.06581E-02  1.18619E+04  5.30880E-02  1.18063E+04  1.22348E-01  1.17511E+04 -1.50958E-01
  1.16956E+04 -4.56027E-02  1.16407E+04  8.60702E-02  1.15859E+04 -5.18762E-02  1.15313E+04 -1.74212E-01
  1.14773E+04  2.01305E-01  1.14232E+04  1.39236E-02  1.13697E+04 -4.91041E-02  1.13160E+04 -2.12128E-01
  1.12629E+04 -1.96227E-01  1.12100E+04  1.77684E-01  1.11574E+04 -1.77290E-01  1.11047E+04  1.44938E-01
  1.10526E+04  1.75968E-01  1.10008E+04  1.23078E-01  1.09488E+04 -2.91972E-02  1.08976E+04  2.09481E-01
  1.08461E+04 -7.11740E-02  1.07951E+04 -1.78470E-02  1.07446E+04 -1.09297E-01  1.06941E+04  6.13459E-02
  1.06436E+04 -6.16741E-02  1.05936E+04 -4.79567E-02  1.05436E+04 -1.42225E-01  1.04941E+04  5.53156E-02
  1.04451E+04  2.03545E-01  1.03956E+04 -1.29460E-01  1.03469E+04  4.07052E-02  1.02984E+04 -1.18599E-01
  1.02501E+04 -4.29016E-02  1.02017E+04 -4.57291E-02  1.01538E+04 -3.98956E-02  1.01061E+04  1.66466E-01
  1.00584E+04 -2.21006E-02  1.00113E+04  4.11217E-02  9.96420E+03  4.13913E-02  9.91720E+03 -5.24636E-02
  9.87046E+03 -7.69230E-02  9.82441E+03 -8.32252E-02  9.77811E+03 -1.67489E-01  9.73225E+03 -9.59032E-02
  9.68623E+03 -1.33558E-01  9.64094E+03  6.87250E-02  9.59561E+03  1.61052E-02  9.55038E+03 -1.24322E-01
  9.50554E+03 -1.20149E-01  9.46088E+03  1.91474E-01  9.41624E+03 -2.26284E-02  9.37197E+03  1.66687E-01
