 $NMID ID='Cr_10mM_test_water_scaling', FMTDAT='(8E13.5)'
 TRAMP=1, VOLUME=1 $END
  2.06943E+01  6.01129E+00  3.98953E+01  1.00573E+01  3.57227E+01  1.91377E+01  2.92754E+01  2.67151E+01
  2.12456E+01  3.21846E+01  1.22041E+01  3.50763E+01  2.94318E+00  3.53547E+01 -5.68043E+00  3.31013E+01
 -1.29107E+01  2.87019E+01 -1.84546E+01  2.26450E+01 -2.16794E+01  1.56704E+01 -2.27184E+01  8.31954E+00
 -2.13803E+01  1.55099E+00 -1.82738E+01 -4.15795E+00 -1.36904E+01 -8.17820E+00 -8.32094E+00 -1.03927E+01
 -2.82289E+00 -1.04011E+01  2.09704E+00 -8.61528E+00  5.83082E+00 -5.16682E+00  7.98537E+00 -5.56436E-01
  8.26024E+00  4.45265E+00  6.57177E+00  9.42345E+00  3.09117E+00  1.34691E+01 -1.93136E+00  1.62144E+01
 -7.75906E+00  1.72566E+01 -1.39189E+01  1.61614E+01 -1.98307E+01  1.29862E+01 -2.46375E+01  7.94408E+00
 -2.78849E+01  1.37215E+00 -2.90830E+01 -6.05713E+00 -2.80304E+01 -1.38788E+01 -2.47193E+01 -2.13831E+01
 -1.92930E+01 -2.77777E+01 -1.22167E+01 -3.25458E+01 -3.95647E+00 -3.51838E+01  4.81057E+00 -3.54694E+01
  1.33549E+01 -3.33457E+01  2.10139E+01 -2.90432E+01  2.71807E+01 -2.28039E+01  3.14138E+01 -1.52171E+01
  3.33476E+01 -6.89290E+00  3.28881E+01  1.42707E+00  3.02827E+01  9.15858E+00  2.58169E+01  1.56085E+01
  1.98767E+01  2.03550E+01  1.31442E+01  2.30643E+01  6.18527E+00  2.37007E+01 -2.87157E-01  2.23700E+01
 -5.62297E+00  1.92504E+01 -9.57784E+00  1.49465E+01 -1.17263E+01  9.89192E+00 -1.21004E+01  4.71613E+00
 -1.06672E+01  1.14972E-02 -7.86742E+00 -3.76965E+00 -3.95553E+00 -5.97816E+00  3.20437E-01 -6.70241E+00
  4.59303E+00 -5.60988E+00  8.17951E+00 -2.98929E+00  1.06750E+01  8.02420E-01  1.15299E+01  5.46175E+00
  1.07448E+01  1.04509E+01  8.30189E+00  1.50164E+01  4.11504E+00  1.87936E+01 -1.14174E+00  2.11803E+01
 -7.28408E+00  2.18474E+01 -1.35732E+01  2.06631E+01 -1.95155E+01  1.75806E+01 -2.44906E+01  1.27822E+01
 -2.79870E+01  6.57102E+00 -2.96310E+01 -5.60318E-01 -2.91998E+01 -7.98117E+00 -2.67908E+01 -1.51877E+01
 -2.24590E+01 -2.14085E+01 -1.66191E+01 -2.62978E+01 -9.60659E+00 -2.93834E+01 -2.20291E+00 -3.04243E+01
  5.29127E+00 -2.95115E+01  1.20236E+01 -2.65615E+01  1.75233E+01 -2.20295E+01  2.15049E+01 -1.62665E+01
  2.36065E+01 -9.87219E+00  2.38327E+01 -3.38432E+00  2.21996E+01  2.60899E+00  1.91055E+01  7.61328E+00
  1.48999E+01  1.12604E+01  1.00328E+01  1.33112E+01  5.07355E+00  1.37249E+01  5.05737E-01  1.24747E+01
 -3.09772E+00  1.00501E+01 -5.45857E+00  6.60501E+00 -6.37104E+00  2.71126E+00 -5.84123E+00 -1.02274E+00
 -3.99941E+00 -4.29599E+00 -9.28859E-01 -6.61259E+00  2.84333E+00 -7.68855E+00  6.77324E+00 -7.20150E+00
  1.04679E+01 -5.33225E+00  1.34814E+01 -2.07953E+00  1.54014E+01  2.17831E+00  1.58133E+01  7.02492E+00
  1.46319E+01  1.20551E+01  1.18686E+01  1.67810E+01  7.67513E+00  2.05334E+01  2.40881E+00  2.30507E+01
 -3.62942E+00  2.39885E+01 -9.74501E+00  2.32014E+01 -1.56439E+01  2.06944E+01 -2.06379E+01  1.65351E+01
 -2.43228E+01  1.11735E+01 -2.64714E+01  4.91970E+00 -2.68895E+01 -1.67743E+00 -2.54421E+01 -8.10484E+00
 -2.22756E+01 -1.39112E+01 -1.78803E+01 -1.84524E+01 -1.23350E+01 -2.16638E+01 -6.42194E+00 -2.31052E+01
 -4.16199E-01 -2.28869E+01  5.04794E+00 -2.10447E+01  9.56019E+00 -1.79629E+01  1.27685E+01 -1.37955E+01
  1.45865E+01 -9.12697E+00  1.48511E+01 -4.35388E+00  1.37417E+01 -1.08842E-02  1.14387E+01  3.48448E+00
  8.29520E+00  5.88088E+00  4.76035E+00  6.99342E+00  1.21694E+00  6.80728E+00 -1.86682E+00  5.33556E+00
 -4.10706E+00  2.87630E+00 -5.26926E+00 -1.50636E-01 -5.20689E+00 -3.42226E+00 -3.78035E+00 -6.60329E+00
 -1.29423E+00 -9.05562E+00  1.98390E+00 -1.05715E+01  5.88308E+00 -1.09574E+01  9.87375E+00 -9.93149E+00
  1.35715E+01 -7.68345E+00  1.63843E+01 -4.11737E+00  1.81957E+01  2.38645E-01  1.86519E+01  5.19749E+00
  1.76763E+01  1.02107E+01  1.52056E+01  1.49587E+01  1.14081E+01  1.88482E+01  6.64620E+00  2.15872E+01
  1.08576E+00  2.29636E+01 -4.56673E+00  2.28556E+01 -1.00442E+01  2.10873E+01 -1.48179E+01  1.79613E+01
 -1.85483E+01  1.36661E+01 -2.08875E+01  8.50507E+00 -2.18588E+01  3.09337E+00 -2.11943E+01 -2.32970E+00
 -1.91927E+01 -7.13191E+00 -1.59644E+01 -1.11398E+01 -1.19384E+01 -1.39758E+01 -7.46876E+00 -1.53915E+01
 -2.95844E+00 -1.54842E+01  1.07827E+00 -1.43428E+01  4.48754E+00 -1.20960E+01  6.80575E+00 -9.11160E+00
  7.91573E+00 -5.75470E+00  7.89390E+00 -2.35680E+00  6.74782E+00  5.18039E-01  4.71553E+00  2.77411E+00
  2.15233E+00  4.06897E+00 -7.29344E-01  4.29959E+00 -3.35556E+00  3.39989E+00 -5.58369E+00  1.48823E+00
 -7.01542E+00 -1.07577E+00 -7.34940E+00 -4.19744E+00 -6.64709E+00 -7.38915E+00 -4.76592E+00 -1.02031E+01
 -1.85766E+00 -1.25049E+01  1.68903E+00 -1.37637E+01  5.65528E+00 -1.40185E+01  9.69447E+00 -1.29004E+01
  1.34046E+01 -1.06387E+01  1.64555E+01 -7.28744E+00  1.84887E+01 -3.09424E+00  1.92620E+01  1.56423E+00
  1.86772E+01  6.37419E+00  1.67581E+01  1.09393E+01  1.37052E+01  1.48107E+01  9.67345E+00  1.77151E+01
  4.99833E+00  1.94221E+01  9.59310E-02  1.98348E+01 -4.61789E+00  1.88405E+01 -8.81976E+00  1.67086E+01
 -1.21827E+01  1.34720E+01 -1.45462E+01  9.58407E+00 -1.56030E+01  5.35398E+00 -1.54921E+01  1.17168E+00
 -1.41597E+01 -2.58512E+00 -1.19597E+01 -5.70420E+00 -9.03956E+00 -7.80217E+00 -5.84452E+00 -8.93730E+00
 -2.62166E+00 -8.93995E+00  2.48353E-01 -7.97899E+00  2.40556E+00 -6.24714E+00  3.79985E+00 -3.85406E+00
  4.23766E+00 -1.35552E+00  3.64514E+00  1.10549E+00  2.24716E+00  3.07538E+00  1.95611E-01  4.43028E+00
 -2.23328E+00  4.89882E+00 -4.86491E+00  4.40579E+00 -7.13403E+00  3.00192E+00 -8.97123E+00  7.66108E-01
 -9.96157E+00 -2.09426E+00 -1.00041E+01 -5.33353E+00 -9.03078E+00 -8.52403E+00 -7.01610E+00 -1.14673E+01
 -4.15062E+00 -1.37009E+01 -6.30266E-01 -1.50795E+01  3.36495E+00 -1.54714E+01  7.29297E+00 -1.46941E+01
  1.10153E+01 -1.27299E+01  1.41131E+01 -9.92932E+00  1.62504E+01 -6.18155E+00  1.73672E+01 -2.06661E+00
  1.73198E+01  2.21174E+00  1.61678E+01  6.36618E+00  1.38240E+01  9.87207E+00  1.08051E+01  1.26853E+01
  7.09744E+00  1.44861E+01  3.22737E+00  1.52160E+01 -6.42465E-01  1.47860E+01 -4.05722E+00  1.33223E+01
 -6.86056E+00  1.11461E+01 -8.79413E+00  8.32028E+00 -9.70228E+00  5.26631E+00 -9.69843E+00  2.20354E+00
 -8.74914E+00 -5.74064E-01 -7.17548E+00 -2.73237E+00 -5.00996E+00 -4.10918E+00 -2.63462E+00 -4.69044E+00
 -4.20464E-01 -4.36160E+00  1.53002E+00 -3.26995E+00  2.81654E+00 -1.58610E+00  3.40957E+00  4.52870E-01
  3.22660E+00  2.63511E+00  2.17133E+00  4.58369E+00  4.03855E-01  6.05948E+00 -1.80982E+00  6.85933E+00
 -4.40633E+00  6.88552E+00 -6.89843E+00  6.05371E+00 -9.18752E+00  4.44021E+00 -1.08814E+01  2.00681E+00
 -1.18890E+01 -9.58899E-01 -1.19587E+01 -4.20587E+00 -1.10427E+01 -7.40872E+00 -9.27785E+00 -1.03387E+01
 -6.63347E+00 -1.27382E+01 -3.39947E+00 -1.43699E+01  2.23434E-01 -1.49595E+01  3.90199E+00 -1.46344E+01
  7.33749E+00 -1.32367E+01  1.03194E+01 -1.09539E+01  1.25906E+01 -8.06053E+00  1.39169E+01 -4.68400E+00
  1.41935E+01 -1.10945E+00  1.35864E+01  2.39108E+00  1.20794E+01  5.41974E+00  9.78827E+00  7.87231E+00
  7.05914E+00  9.47042E+00  4.15368E+00  1.01752E+01  1.25245E+00  1.00799E+01 -1.36948E+00  9.09189E+00
 -3.34149E+00  7.56810E+00 -4.70356E+00  5.49572E+00 -5.35981E+00  3.26674E+00 -5.08605E+00  1.16245E+00
 -4.25247E+00 -6.87689E-01 -2.80802E+00 -2.09345E+00 -1.06683E+00 -2.69999E+00  7.98322E-01 -2.77476E+00
  2.46320E+00 -2.01575E+00  3.81849E+00 -7.35721E-01  4.52887E+00  1.06980E+00  4.67983E+00  3.10302E+00
  3.95840E+00  5.11439E+00  2.61363E+00  6.95636E+00  7.30895E-01  8.30633E+00 -1.67719E+00  8.98989E+00
 -4.32854E+00  8.91686E+00 -6.94203E+00  8.05101E+00 -9.22504E+00  6.36098E+00 -1.10070E+01  4.08555E+00
 -1.21028E+01  1.24083E+00 -1.24112E+01 -1.80904E+00 -1.18179E+01 -4.91398E+00 -1.04503E+01 -7.80578E+00
 -8.26439E+00 -1.02232E+01 -5.53871E+00 -1.18570E+01 -2.46375E+00 -1.27786E+01  7.06950E-01 -1.28276E+01
  3.76122E+00 -1.20355E+01  6.41457E+00 -1.04342E+01  8.45056E+00 -8.22155E+00  9.72368E+00 -5.56829E+00
  1.03038E+01 -2.85301E+00  9.99486E+00 -8.02378E-02  9.02219E+00  2.23106E+00  7.42177E+00  4.12391E+00
  5.46208E+00  5.38058E+00  3.33402E+00  6.00374E+00  1.24317E+00  5.87833E+00 -5.25630E-01  5.11078E+00
 -1.80349E+00  3.84336E+00 -2.66037E+00  2.27742E+00 -2.73978E+00  6.14607E-01 -2.27435E+00 -9.87318E-01
 -1.30066E+00 -2.16757E+00  1.06877E-01 -2.95233E+00  1.77581E+00 -3.14941E+00  3.42070E+00 -2.70675E+00
  4.89548E+00 -1.68551E+00  5.96661E+00 -1.34998E-01  6.47275E+00  1.81069E+00  6.30820E+00  3.95587E+00
  5.57127E+00  5.98841E+00  4.07374E+00  7.76863E+00  2.09772E+00  9.09060E+00 -2.84263E-01  9.86530E+00
 -2.84953E+00  9.89231E+00 -5.37069E+00  9.26809E+00 -7.67739E+00  7.81321E+00 -9.57142E+00  5.83286E+00
 -1.08089E+01  3.31285E+00 -1.13450E+01  6.24929E-01 -1.10971E+01 -2.13016E+00 -1.01344E+01 -4.79423E+00
 -8.56599E+00 -6.94152E+00 -6.44001E+00 -8.61428E+00 -3.95241E+00 -9.64804E+00 -1.38062E+00 -9.90870E+00
  1.05931E+00 -9.47837E+00  3.18078E+00 -8.45720E+00  4.86784E+00 -6.87752E+00  5.95424E+00 -5.01837E+00
  6.51583E+00 -2.90890E+00  6.28334E+00 -1.01463E+00  5.58169E+00  7.16304E-01  4.42738E+00  2.09796E+00
  3.00228E+00  2.85929E+00  1.46241E+00  3.08383E+00 -1.82634E-02  2.77481E+00 -1.19266E+00  1.93881E+00
 -1.91480E+00  8.41318E-01 -2.19407E+00 -5.42474E-01 -2.00173E+00 -1.91079E+00 -1.17853E+00 -3.10156E+00
 -4.22527E-03 -3.99498E+00  1.48878E+00 -4.45996E+00  3.17843E+00 -4.38960E+00  4.75747E+00 -3.69730E+00
  6.18578E+00 -2.48361E+00  7.25855E+00 -8.11227E-01  7.70908E+00  1.16061E+00  7.66451E+00  3.20971E+00
  6.94972E+00  5.25737E+00  5.63889E+00  7.16286E+00  3.79845E+00  8.58539E+00  1.63075E+00  9.49105E+00
 -7.82814E-01  9.71293E+00 -3.13897E+00  9.29445E+00 -5.34444E+00  8.28316E+00 -7.18608E+00  6.69065E+00
 -8.43605E+00  4.67132E+00 -9.14606E+00  2.43733E+00 -9.23263E+00  1.37754E-01 -8.65134E+00 -2.12281E+00
 -7.54553E+00 -3.96514E+00 -6.04396E+00 -5.48316E+00 -4.13337E+00 -6.35082E+00 -2.25785E+00 -6.78970E+00
