 $NMID ID='Ace', FMTDAT='(8E13.5)'
 TRAMP=1., VOLUME=1. $END
  3.10000E+00  6.66134E-16  2.64385E+00  1.59678E+00  1.43054E+00  2.71081E+00 -1.62387E-01  3.02747E+00
 -1.66230E+00  2.48820E+00 -2.65651E+00  1.28593E+00 -2.90534E+00 -2.20430E-01 -2.38281E+00 -1.62458E+00
 -1.25260E+00 -2.57741E+00  1.90588E-01 -2.85452E+00  1.58838E+00 -2.38980E+00  2.58711E+00 -1.28714E+00
  2.91147E+00  1.88632E-01  2.44123E+00  1.65406E+00  1.26889E+00  2.69468E+00 -2.96504E-01  2.98744E+00
 -1.80299E+00  2.41793E+00 -2.79534E+00  1.13851E+00 -2.97099E+00 -4.69045E-01 -2.28609E+00 -1.91996E+00
 -9.65159E-01 -2.79114E+00  5.86703E-01 -2.85543E+00  1.92556E+00 -2.13508E+00  2.70272E+00 -8.66403E-01
  2.74556E+00  5.92680E-01  2.07435E+00  1.86651E+00  8.73595E-01  2.64467E+00 -5.57151E-01  2.73696E+00
 -1.86111E+00  2.10829E+00 -2.69381E+00  8.96928E-01 -2.80702E+00 -5.95919E-01 -2.13230E+00 -1.96352E+00
 -8.29150E-01 -2.80187E+00  7.37747E-01 -2.84191E+00  2.10247E+00 -2.05323E+00  2.85179E+00 -6.68222E-01
  2.76738E+00  8.92302E-01  1.89571E+00  2.16386E+00  5.18703E-01  2.79200E+00 -9.54369E-01  2.63323E+00
 -2.12135E+00  1.77293E+00 -2.69472E+00  4.71430E-01 -2.55533E+00 -9.24077E-01 -1.75668E+00 -2.06563E+00
 -4.99985E-01 -2.67235E+00  9.05731E-01 -2.58272E+00  2.09978E+00 -1.79578E+00  2.74879E+00 -4.92001E-01
  2.64234E+00  9.87729E-01  1.77575E+00  2.22145E+00  3.78299E-01  2.83302E+00 -1.14176E+00  2.62356E+00
 -2.32654E+00  1.65012E+00 -2.82408E+00  2.11501E-01 -2.50494E+00 -1.25619E+00 -1.49292E+00 -2.32899E+00
 -1.04858E-01 -2.72648E+00  1.26426E+00 -2.37785E+00  2.25886E+00 -1.41304E+00  2.64405E+00 -1.02429E-01
  2.34119E+00  1.21988E+00  1.42969E+00  2.22692E+00  1.29471E-01  2.66052E+00 -1.23488E+00  2.38840E+00
 -2.29744E+00  1.45130E+00 -2.74413E+00  7.89262E-02 -2.41602E+00 -1.35083E+00 -1.38120E+00 -2.41523E+00
  6.60126E-02 -2.78498E+00  1.49216E+00 -2.34274E+00  2.46980E+00 -1.22803E+00  2.72130E+00  2.13521E-01
  2.20206E+00  1.55356E+00  1.09497E+00  2.42199E+00 -2.68956E-01  2.60949E+00 -1.52044E+00  2.10300E+00
 -2.34805E+00  1.06110E+00 -2.55869E+00 -2.42892E-01 -2.10500E+00 -1.48472E+00 -1.09135E+00 -2.35147E+00
  2.38026E-01 -2.60570E+00  1.53888E+00 -2.15054E+00  2.44461E+00 -1.07773E+00  2.67366E+00  3.31034E-01
  2.13195E+00  1.67035E+00  9.63261E-01  2.53545E+00 -4.85240E-01  2.66091E+00 -1.77683E+00  2.01487E+00
 -2.53361E+00  8.06657E-01 -2.55731E+00 -5.93518E-01 -1.87679E+00 -1.78393E+00 -7.14217E-01 -2.45355E+00
  6.01220E-01 -2.45498E+00  1.72977E+00 -1.81762E+00  2.39708E+00 -7.18080E-01  2.44221E+00  5.68040E-01
  1.84543E+00  1.72046E+00  7.40267E-01  2.43631E+00 -5.98758E-01  2.50273E+00 -1.80826E+00  1.86816E+00
 -2.53164E+00  6.82786E-01 -2.53529E+00 -7.23169E-01 -1.79969E+00 -1.93243E+00 -5.39732E-01 -2.57800E+00
  8.62734E-01 -2.47010E+00  1.98963E+00 -1.65816E+00  2.52546E+00 -4.03206E-01  2.34823E+00  9.21239E-01
  1.54431E+00  1.95227E+00  3.57294E-01  2.43571E+00 -8.94770E-01  2.27370E+00 -1.89933E+00  1.52576E+00
 -2.41061E+00  3.82179E-01 -2.29422E+00 -8.75291E-01 -1.56013E+00 -1.92513E+00 -3.77787E-01 -2.47554E+00
  9.44729E-01 -2.34723E+00  2.03155E+00 -1.54455E+00  2.55116E+00 -2.78824E-01  2.33242E+00  1.08151E+00
  1.43365E+00  2.12673E+00  1.29034E-01  2.54499E+00 -1.18613E+00  2.22663E+00 -2.13081E+00  1.29092E+00
 -2.45713E+00  3.02735E-02 -2.10962E+00 -1.19548E+00 -1.21520E+00 -2.06700E+00 -2.57193E-02 -2.37930E+00
  1.15450E+00 -2.07204E+00  2.03411E+00 -1.22758E+00  2.38930E+00 -5.11630E-02  2.11194E+00  1.16387E+00
  1.24809E+00  2.09303E+00  9.35791E-03  2.46231E+00 -1.26451E+00  2.13783E+00 -2.19759E+00  1.18797E+00
 -2.50025E+00 -1.18613E-01 -2.07407E+00 -1.39140E+00 -1.05115E+00 -2.24825E+00  2.52442E-01 -2.44444E+00
  1.44880E+00 -1.94707E+00  2.20627E+00 -9.28924E-01  2.34225E+00  3.05174E-01  1.85424E+00  1.41982E+00
  8.94947E-01  2.13735E+00 -2.82511E-01  2.29205E+00 -1.38493E+00  1.85215E+00 -2.13567E+00  9.21352E-01
 -2.33046E+00 -2.75398E-01 -1.89236E+00 -1.42919E+00 -9.11563E-01 -2.21609E+00  3.55367E-01 -2.39114E+00
  1.54506E+00 -1.87776E+00  2.29795E+00 -8.11229E-01  2.38152E+00  4.93020E-01  1.77392E+00  1.64188E+00
  6.69924E-01  2.29805E+00 -5.92512E-01  2.28877E+00 -1.65012E+00  1.64785E+00 -2.22567E+00  5.83611E-01
 -2.19370E+00 -6.01562E-01 -1.59060E+00 -1.60058E+00 -5.84691E-01 -2.17114E+00  5.70707E-01 -2.17769E+00
  1.58824E+00 -1.61309E+00  2.20192E+00 -6.05649E-01  2.22977E+00  5.94611E-01  1.63449E+00  1.66325E+00
  5.57104E-01  2.28585E+00 -7.03552E-01  2.26006E+00 -1.77406E+00  1.57533E+00 -2.32881E+00  4.30099E-01
 -2.20315E+00 -8.29432E-01 -1.44832E+00 -1.82724E+00 -3.05605E-01 -2.28273E+00  8.84422E-01 -2.09257E+00
  1.79451E+00 -1.34296E+00  2.20011E+00 -2.61277E-01  2.02162E+00  8.61388E-01  1.32272E+00  1.74444E+00
  2.82864E-01  2.17310E+00 -8.41259E-01  2.03632E+00 -1.76321E+00  1.35284E+00 -2.22797E+00  2.81378E-01
 -2.08335E+00 -8.99785E-01 -1.34098E+00 -1.85611E+00 -1.95422E-01 -2.29576E+00  1.02108E+00 -2.07188E+00
  1.94219E+00 -1.24322E+00  2.29189E+00 -6.10615E-02  1.97767E+00  1.11661E+00  1.11380E+00  1.94756E+00
 -3.02318E-02  2.21291E+00 -1.12690E+00  1.87012E+00 -1.88961E+00  1.04227E+00 -2.13970E+00 -3.64944E-02
 -1.83222E+00 -1.08919E+00 -1.05103E+00 -1.85635E+00  1.26818E-02 -2.14433E+00  1.09394E+00 -1.86571E+00
  1.90525E+00 -1.07036E+00  2.20793E+00  4.69873E-02  1.88987E+00  1.18108E+00  1.01895E+00  1.99792E+00
 -1.59813E-01  2.24307E+00 -1.29487E+00  1.83451E+00 -2.04484E+00  8.96884E-01 -2.19425E+00 -2.81082E-01
 -1.72000E+00 -1.34840E+00 -7.84783E-01 -2.00806E+00  3.31061E-01 -2.10100E+00  1.32313E+00 -1.63325E+00
  1.94401E+00 -7.51078E-01  2.05186E+00  3.11451E-01  1.62785E+00  1.28935E+00  7.74021E-01  1.93825E+00
 -3.02648E-01  2.08287E+00 -1.32513E+00  1.66326E+00 -2.00747E+00  7.67400E-01 -2.13696E+00 -3.71199E-01
 -1.65202E+00 -1.42708E+00 -6.79603E-01 -2.08113E+00  4.93926E-01 -2.12996E+00  1.51499E+00 -1.56004E+00
  2.08279E+00 -5.52252E-01  2.04702E+00  5.85205E-01  1.44510E+00  1.52410E+00  4.71846E-01  2.01747E+00
 -5.95279E-01  1.95890E+00 -1.47888E+00  1.39002E+00 -1.96514E+00  4.70624E-01 -1.94044E+00 -5.66699E-01
 -1.40792E+00 -1.46427E+00 -4.90301E-01 -1.98874E+00  5.84860E-01 -1.98508E+00  1.52810E+00 -1.42795E+00
  2.06250E+00 -4.49495E-01  2.01316E+00  6.80080E-01  1.37697E+00  1.62685E+00  3.36884E-01  2.10220E+00
 -7.93483E-01  1.96358E+00 -1.67618E+00  1.26312E+00 -2.06188E+00  2.23511E-01 -1.86339E+00 -8.45030E-01
 -1.16581E+00 -1.64760E+00 -1.80936E-01 -1.98597E+00  8.25074E-01 -1.79612E+00  1.60044E+00 -1.14441E+00
  1.95772E+00 -1.99566E-01  1.80593E+00  8.04689E-01  1.17070E+00  1.61335E+00  2.00402E-01  2.00384E+00
 -8.53757E-01  1.84756E+00 -1.69425E+00  1.16195E+00 -2.06451E+00  1.25908E-01 -1.83891E+00 -9.61175E-01
 -1.07591E+00 -1.77201E+00 -5.52786E-03 -2.06254E+00  1.04827E+00 -1.75510E+00  1.77837E+00 -9.58687E-01
  1.99164E+00  7.87152E-02  1.65642E+00  1.05925E+00  8.91343E-01  1.72584E+00 -8.63252E-02  1.92300E+00
 -1.02464E+00  1.61868E+00 -1.69268E+00  8.97026E-01 -1.92324E+00 -6.41464E-02 -1.64658E+00 -1.02563E+00
 -9.15140E-01 -1.73292E+00  9.20360E-02 -1.97849E+00  1.10089E+00 -1.66904E+00  1.81492E+00 -8.71336E-01
  2.01094E+00  1.91358E-01  1.62106E+00  1.20280E+00  7.62558E-01  1.85830E+00 -3.01114E-01  1.96833E+00
 -1.25262E+00  1.51795E+00 -1.82615E+00  6.59896E-01 -1.88337E+00 -3.48329E-01 -1.43708E+00 -1.23066E+00
 -6.26762E-01 -1.76679E+00  3.31449E-01 -1.83564E+00  1.19819E+00 -1.42904E+00  1.75780E+00 -6.46604E-01
  1.86031E+00  3.21421E-01  1.46014E+00  1.22673E+00  6.42580E-01  1.81717E+00 -3.79991E-01  1.90841E+00
 -1.31629E+00  1.45170E+00 -1.88336E+00  5.65888E-01 -1.90360E+00 -4.89274E-01 -1.37035E+00 -1.39601E+00
 -4.51247E-01 -1.88628E+00  5.72896E-01 -1.82953E+00  1.40573E+00 -1.26569E+00  1.82742E+00 -3.76506E-01
  1.74804E+00  5.83714E-01  1.21297E+00  1.36455E+00  3.73400E-01  1.77747E+00 -5.57339E-01  1.72780E+00
 -1.34829E+00  1.22693E+00 -1.79500E+00  3.91777E-01 -1.76589E+00 -5.70684E-01 -1.24559E+00 -1.40237E+00
 -3.57656E-01 -1.85969E+00  6.53749E-01 -1.79185E+00  1.49026E+00 -1.20177E+00  1.89630E+00 -2.57940E-01
  1.74874E+00  7.55791E-01  1.09984E+00  1.53593E+00  1.54827E-01  1.86110E+00 -8.03992E-01  1.65807E+00
 -1.51103E+00  1.01012E+00 -1.79148E+00  1.14123E-01 -1.59454E+00 -7.86784E-01 -9.87993E-01 -1.46681E+00
 -1.30111E-01 -1.76257E+00  7.66460E-01 -1.60026E+00  1.47483E+00 -1.01086E+00  1.80106E+00 -1.32775E-01
  1.63703E+00  8.07349E-01  1.00469E+00  1.54512E+00  6.83665E-02  1.85528E+00 -9.02339E-01  1.63073E+00
 -1.61527E+00  9.29065E-01 -1.85485E+00 -3.93608E-02 -1.55628E+00 -9.81652E-01 -8.23034E-01 -1.62237E+00
  1.16968E-01 -1.79131E+00  9.93078E-01 -1.46588E+00  1.57485E+00 -7.59812E-01  1.72714E+00  1.25614E-01
  1.42868E+00  9.61403E-01  7.62914E-01  1.54216E+00 -1.05048E-01  1.72383E+00 -9.59376E-01  1.45172E+00
 -1.57495E+00  7.79802E-01 -1.77168E+00 -1.27467E-01 -1.47251E+00 -1.02419E+00 -7.42608E-01 -1.64739E+00
  2.14765E-01 -1.80158E+00  1.11535E+00 -1.43103E+00  1.68740E+00 -6.45792E-01  1.76446E+00  3.13982E-01
  1.33829E+00  1.16161E+00  5.51910E-01  1.65938E+00 -3.58450E-01  1.68718E+00 -1.14261E+00  1.26309E+00
 -1.60450E+00  5.19587E-01 -1.64113E+00 -3.44005E-01 -1.25298E+00 -1.11160E+00 -5.36658E-01 -1.59301E+00
  3.33137E-01 -1.66036E+00  1.13399E+00 -1.28020E+00  1.64375E+00 -5.34743E-01  1.70307E+00  3.82998E-01
  1.27410E+00  1.21251E+00  4.67876E-01  1.70314E+00 -4.80187E-01  1.70006E+00 -1.28471E+00  1.20224E+00
 -1.70704E+00  3.64795E-01 -1.63401E+00 -5.56686E-01 -1.10708E+00 -1.29483E+00 -2.95463E-01 -1.65408E+00
  5.68010E-01 -1.55879E+00  1.25741E+00 -1.05685E+00  1.60664E+00 -2.90837E-01  1.53733E+00  5.43752E-01
  1.06743E+00  1.24002E+00  3.07915E-01  1.61906E+00 -5.53083E-01  1.56968E+00 -1.28562E+00  1.08474E+00
 -1.67567E+00  2.79555E-01 -1.59360E+00 -6.25397E-01 -1.04718E+00 -1.36373E+00 -1.91376E-01 -1.70937E+00
