 $NMID ID='Ala', FMTDAT='(8E13.5)'
 TRAMP=1., VOLUME=1. $END
  2.76948E+00 -3.49232E-02  2.32882E+00  1.42542E+00  1.14757E+00  2.35240E+00 -3.10499E-01  2.42666E+00
 -1.49577E+00  1.67091E+00 -1.99438E+00  4.20981E-01 -1.67732E+00 -8.26816E-01 -7.23391E-01 -1.61537E+00
  4.75585E-01 -1.68788E+00  1.47243E+00 -1.05622E+00  1.91841E+00  2.98199E-02  1.66536E+00  1.18278E+00
  7.98007E-01  2.00554E+00 -3.99524E-01  2.21185E+00 -1.53025E+00  1.71445E+00 -2.20644E+00  6.60509E-01
 -2.18059E+00 -6.02370E-01 -1.44489E+00 -1.63339E+00 -2.54917E-01 -2.05549E+00  9.48639E-01 -1.70754E+00
  1.70425E+00 -7.24263E-01  1.71799E+00  5.03108E-01  9.91902E-01  1.48034E+00 -1.71848E-01  1.81512E+00
 -1.29788E+00  1.38077E+00 -1.93849E+00  3.62858E-01 -1.85561E+00 -8.29452E-01 -1.10367E+00 -1.74089E+00
  1.44358E-02 -2.05138E+00  1.08508E+00 -1.68418E+00  1.74577E+00 -8.07584E-01  1.80451E+00  2.51668E-01
  1.28279E+00  1.13402E+00  3.85904E-01  1.56229E+00 -5.73745E-01  1.41691E+00 -1.27269E+00  7.62567E-01
 -1.47147E+00 -1.71996E-01 -1.09147E+00 -1.05827E+00 -2.52584E-01 -1.56902E+00  7.50484E-01 -1.49425E+00
  1.54155E+00 -8.32264E-01  1.80371E+00  1.89503E-01  1.41392E+00  1.18817E+00  5.07190E-01  1.77507E+00
 -5.68731E-01  1.71973E+00 -1.39610E+00  1.05134E+00 -1.66405E+00  4.62877E-02 -1.29657E+00 -8.93703E-01
 -4.73172E-01 -1.41384E+00  4.61679E-01 -1.34726E+00  1.14980E+00 -7.64312E-01  1.35815E+00  8.02595E-02
  1.04882E+00  8.64088E-01  3.65474E-01  1.31894E+00 -4.39379E-01  1.31095E+00 -1.09609E+00  8.63423E-01
 -1.39670E+00  1.32806E-01 -1.24741E+00 -6.43225E-01 -6.92835E-01 -1.21190E+00  9.06527E-02 -1.37798E+00
  8.38781E-01 -1.07112E+00  1.28118E+00 -3.85137E-01  1.24263E+00  4.36929E-01  7.24129E-01  1.08267E+00
 -8.00941E-02  1.29352E+00 -8.50809E-01  9.79237E-01 -1.27557E+00  2.65735E-01 -1.18505E+00 -5.54049E-01
 -6.26814E-01 -1.14746E+00  1.60543E-01 -1.28674E+00  8.58562E-01 -9.40713E-01  1.20788E+00 -2.73035E-01
  1.10764E+00  4.43922E-01  6.35258E-01  9.49434E-01 -8.97276E-03  1.09031E+00 -5.93070E-01  8.56901E-01
 -9.34799E-01  3.60313E-01 -9.46689E-01 -2.22319E-01 -6.44161E-01 -7.05486E-01 -1.30591E-01 -9.41239E-01
  4.29859E-01 -8.53371E-01  8.51214E-01 -4.61615E-01  9.78886E-01  1.11711E-01  7.48571E-01  6.67145E-01
  2.26376E-01  9.92035E-01 -3.98601E-01  9.46644E-01 -8.80585E-01  5.33922E-01 -1.02087E+00 -8.80473E-02
 -7.60363E-01 -6.67178E-01 -2.10912E-01 -9.68236E-01  3.94720E-01 -8.78987E-01  8.10469E-01 -4.56947E-01
  8.86440E-01  1.05988E-01  6.25329E-01  5.78726E-01  1.62977E-01  7.93409E-01 -3.07343E-01  7.04464E-01
 -6.20972E-01  3.83957E-01 -6.96056E-01 -3.01850E-02 -5.40666E-01 -3.96451E-01 -2.26639E-01 -6.12092E-01
  1.44190E-01 -6.27691E-01  4.64830E-01 -4.45638E-01  6.40293E-01 -1.16669E-01  6.07475E-01  2.63822E-01
  3.60843E-01  5.70871E-01 -2.88710E-02  6.86381E-01 -4.23892E-01  5.50126E-01 -6.66660E-01  1.99541E-01
 -6.50230E-01 -2.31228E-01 -3.75542E-01 -5.63557E-01  4.05478E-02 -6.56882E-01  4.17191E-01 -4.77950E-01
  5.96462E-01 -1.16853E-01  5.17922E-01  2.60416E-01  2.40159E-01  4.95842E-01 -9.94047E-02  5.12134E-01
 -3.58958E-01  3.36247E-01 -4.56492E-01  6.77011E-02 -3.91235E-01 -1.81579E-01 -2.20393E-01 -3.37212E-01
 -1.62848E-02 -3.77740E-01  1.65292E-01 -3.18621E-01  2.91073E-01 -1.87773E-01  3.39753E-01 -1.43729E-02
  2.95300E-01  1.65618E-01  1.56269E-01  3.02300E-01 -4.64341E-02  3.40901E-01 -2.44053E-01  2.49749E-01
 -3.51845E-01  4.94304E-02 -3.12291E-01 -1.82192E-01 -1.33371E-01 -3.41257E-01  1.06538E-01 -3.51859E-01
  2.95972E-01 -2.10015E-01  3.50088E-01  1.20085E-02  2.56174E-01  2.06054E-01  7.62603E-02  2.88581E-01
 -9.39197E-02  2.43372E-01 -1.81828E-01  1.20840E-01 -1.73991E-01 -2.05250E-03 -1.10320E-01 -7.15629E-02
 -4.59501E-02 -8.29744E-02 -1.09967E-02 -6.85064E-02  3.09332E-03 -6.15432E-02  2.42458E-02 -6.71558E-02
  6.65982E-02 -6.13709E-02  1.11983E-01 -1.75961E-02  1.21543E-01  6.30607E-02  6.82194E-02  1.43627E-01
 -3.62339E-02  1.73488E-01 -1.42320E-01  1.24919E-01 -1.93015E-01  1.59586E-02 -1.61558E-01 -9.85655E-02
 -6.89556E-02 -1.62151E-01  3.16410E-02 -1.52415E-01  9.17706E-02 -9.16928E-02  9.81521E-02 -2.57799E-02
  7.47266E-02  1.17779E-02  5.64403E-02  2.19202E-02  5.68836E-02  3.20803E-02  5.64922E-02  6.54065E-02
  2.15506E-02  1.13151E-01 -6.07243E-02  1.34426E-01 -1.59874E-01  8.63994E-02 -2.13402E-01 -3.66575E-02
 -1.67302E-01 -1.86166E-01 -1.84299E-02 -2.80546E-01  1.72681E-01 -2.54103E-01  3.10814E-01 -1.01541E-01
  3.20238E-01  1.12647E-01  1.89541E-01  2.87674E-01 -2.15359E-02  3.41957E-01 -2.16539E-01  2.55746E-01
 -3.14628E-01  7.59361E-02 -2.87923E-01 -1.15892E-01 -1.64238E-01 -2.48022E-01 -5.04661E-04 -2.87265E-01
  1.49835E-01 -2.38937E-01  2.53452E-01 -1.27632E-01  2.93099E-01  2.02005E-02  2.56546E-01  1.77953E-01
  1.36229E-01  3.09219E-01 -5.55700E-02  3.64461E-01 -2.69798E-01  2.97981E-01 -4.23513E-01  1.00620E-01
 -4.32649E-01 -1.74717E-01 -2.61290E-01 -4.19759E-01  4.36030E-02 -5.16273E-01  3.59872E-01 -3.99244E-01
  5.43698E-01 -1.00364E-01  5.02390E-01  2.57835E-01  2.44936E-01  5.18262E-01 -1.19757E-01  5.66043E-01
 -4.36254E-01  3.83126E-01 -5.76862E-01  5.19777E-02 -4.96123E-01 -2.89635E-01 -2.40107E-01 -5.13722E-01
  8.63793E-02 -5.51441E-01  3.69454E-01 -4.06783E-01  5.25055E-01 -1.38962E-01  5.14611E-01  1.66789E-01
  3.43485E-01  4.22591E-01  5.54802E-02  5.52182E-01 -2.70869E-01  5.04368E-01 -5.31312E-01  2.72245E-01
 -6.21449E-01 -8.82371E-02 -4.79250E-01 -4.58283E-01 -1.26487E-01 -6.89598E-01  3.19200E-01 -6.66405E-01
  6.80214E-01 -3.68042E-01  7.94641E-01  1.05093E-01  5.96000E-01  5.64595E-01  1.53142E-01  8.15977E-01
 -3.55038E-01  7.49441E-01 -7.19767E-01  3.91871E-01 -7.96459E-01 -1.06986E-01 -5.65023E-01 -5.45055E-01
 -1.29466E-01 -7.56715E-01  3.36166E-01 -6.75955E-01  6.62716E-01 -3.49352E-01  7.45324E-01  9.64975E-02
  5.67634E-01  5.08387E-01  1.93389E-01  7.55129E-01 -2.59629E-01  7.59012E-01 -6.50774E-01  5.11497E-01
 -8.49893E-01  7.78648E-02 -7.74376E-01 -4.11079E-01 -4.24863E-01 -7.88243E-01  9.67567E-02 -9.03508E-01
  6.06592E-01 -6.87707E-01  9.01299E-01 -1.97735E-01  8.44600E-01  3.87819E-01  4.37447E-01  8.32666E-01
 -1.68338E-01  9.43732E-01 -7.27629E-01  6.61441E-01 -1.00759E+00  9.22355E-02 -8.90619E-01 -5.35647E-01
 -4.24053E-01 -9.72120E-01  2.05568E-01 -1.05150E+00  7.56979E-01 -7.55263E-01  1.03349E+00 -2.07367E-01
  9.52327E-01  3.86439E-01  5.60972E-01  8.20840E-01  5.92388E-03  9.58933E-01 -5.23536E-01  7.66689E-01
 -8.53449E-01  3.13695E-01 -8.72345E-01 -2.50475E-01 -5.63140E-01 -7.36385E-01 -1.55775E-02 -9.67465E-01
  5.89214E-01 -8.38845E-01  1.02899E+00 -3.65801E-01  1.11907E+00  3.02659E-01  7.93025E-01  9.23702E-01
  1.46592E-01  1.25001E+00 -5.85084E-01  1.13545E+00 -1.11722E+00  6.07356E-01 -1.23609E+00 -1.34529E-01
 -8.94194E-01 -7.98099E-01 -2.32800E-01 -1.12292E+00  4.79667E-01 -9.89898E-01  9.62750E-01 -4.66100E-01
  1.03767E+00  2.31949E-01  6.90032E-01  8.33129E-01  6.13669E-02  1.11791E+00 -6.16033E-01  9.91936E-01
 -1.10647E+00  5.05755E-01 -1.24633E+00 -1.74346E-01 -9.88531E-01 -8.24889E-01 -4.11916E-01 -1.23284E+00
  3.01164E-01 -1.25814E+00  9.15097E-01 -8.80217E-01  1.21288E+00 -2.15433E-01  1.07418E+00  5.07782E-01
  5.32464E-01  1.02020E+00 -2.19239E-01  1.11270E+00 -8.89165E-01  7.28424E-01 -1.19941E+00  1.35018E-03
 -1.00495E+00 -7.85742E-01 -3.63152E-01 -1.31331E+00  4.83290E-01 -1.35965E+00  1.20584E+00 -8.95881E-01
  1.52719E+00 -9.68181E-02  1.33288E+00  7.35548E-01  7.09508E-01  1.29785E+00 -1.01195E-01  1.40250E+00
 -8.04206E-01  1.03872E+00 -1.16129E+00  3.61372E-01 -1.06755E+00 -3.76617E-01 -5.74803E-01 -9.15006E-01
  1.34887E-01 -1.06848E+00  8.09898E-01 -7.80597E-01  1.20614E+00 -1.40922E-01  1.16410E+00  6.37676E-01
  6.67491E-01  1.28032E+00 -1.37205E-01  1.54011E+00 -9.77127E-01  1.29206E+00 -1.54439E+00  5.94496E-01
 -1.61523E+00 -3.15781E-01 -1.14852E+00 -1.10470E+00 -3.15333E-01 -1.47252E+00  5.61878E-01 -1.28052E+00
  1.13944E+00 -6.13783E-01  1.19513E+00  2.51800E-01  7.18840E-01  9.64625E-01 -8.86037E-02  1.24194E+00
 -9.03789E-01  9.79470E-01 -1.41256E+00  2.82072E-01 -1.42709E+00 -5.89251E-01 -9.44383E-01 -1.32292E+00
 -1.33246E-01 -1.66835E+00  7.33908E-01 -1.51461E+00  1.37415E+00 -9.17649E-01  1.58257E+00 -7.65806E-02
  1.29523E+00  7.29358E-01  6.12628E-01  1.22743E+00 -2.24810E-01  1.24169E+00 -9.09650E-01  7.61210E-01
 -1.17377E+00 -4.13429E-02 -8.94299E-01 -8.58717E-01 -1.55105E-01 -1.35854E+00  7.70707E-01 -1.31595E+00
  1.52048E+00 -7.13299E-01  1.78760E+00  2.42038E-01  1.45030E+00  1.19594E+00  6.24494E-01  1.79101E+00
 -3.84274E-01  1.81197E+00 -1.20733E+00  1.26871E+00 -1.56011E+00  3.83662E-01 -1.34682E+00 -5.04977E-01
 -6.83761E-01 -1.07707E+00  1.58214E-01 -1.14504E+00  8.60040E-01 -7.09504E-01  1.16556E+00  5.41547E-02
  9.61730E-01  8.63177E-01  3.09610E-01  1.42190E+00 -5.76756E-01  1.51593E+00 -1.39620E+00  1.08289E+00
 -1.85622E+00  2.40378E-01 -1.77463E+00 -7.42247E-01 -1.15415E+00 -1.52859E+00 -1.97008E-01 -1.83557E+00
  7.57373E-01 -1.54726E+00  1.35738E+00 -7.72599E-01  1.38056E+00  1.85772E-01  8.29988E-01  9.47003E-01
 -6.10664E-02  1.20639E+00 -9.22324E-01  8.61252E-01 -1.39805E+00  5.19397E-02 -1.29001E+00 -8.99272E-01
 -6.30646E-01 -1.62149E+00  3.39876E-01 -1.84053E+00  1.27531E+00 -1.47618E+00  1.85563E+00 -6.58904E-01
  1.89712E+00  3.30171E-01  1.40535E+00  1.16408E+00  5.62385E-01  1.57967E+00 -3.38917E-01  1.45920E+00
 -9.90393E-01  8.65061E-01 -1.16795E+00  2.08611E-02 -8.08846E-01 -7.57678E-01 -4.22229E-02 -1.16693E+00
  8.44099E-01 -1.02591E+00  1.49945E+00 -3.53754E-01  1.64147E+00  6.22070E-01  1.17308E+00  1.54111E+00
  2.33046E-01  2.04700E+00 -8.49235E-01  1.93235E+00 -1.68173E+00  1.22766E+00 -1.96771E+00  1.92181E-01
 -1.62459E+00 -7.91231E-01 -8.12239E-01 -1.37086E+00  1.38537E-01 -1.36269E+00  8.61645E-01 -8.12725E-01
  1.09539E+00  3.41299E-02  7.71276E-01  8.36939E-01  2.51422E-02  1.28637E+00 -8.62753E-01  1.20907E+00
