 $NMID ID='Asc', FMTDAT='(8E13.5)'
 TRAMP=1., VOLUME=1. $END
  3.83645E+00 -8.17495E-03  3.75273E+00  5.35391E-01  3.55094E+00  1.00486E+00  3.29898E+00  1.37467E+00
  3.05325E+00  1.67567E+00  2.82007E+00  1.96387E+00  2.55632E+00  2.27105E+00  2.20854E+00  2.57492E+00
  1.76062E+00  2.81139E+00  1.25370E+00  2.91978E+00  7.63205E-01  2.88662E+00  3.50164E-01  2.75517E+00
  2.34758E-02  2.59337E+00 -2.58590E-01  2.44467E+00 -5.49194E-01  2.29884E+00 -8.65977E-01  2.10465E+00
 -1.17208E+00  1.81453E+00 -1.39954E+00  1.42720E+00 -1.49738E+00  9.95754E-01 -1.46804E+00  5.95037E-01
 -1.36460E+00  2.72859E-01 -1.25119E+00  2.17106E-02 -1.15638E+00 -2.07900E-01 -1.05488E+00 -4.62925E-01
 -8.91164E-01 -7.46041E-01 -6.26785E-01 -1.00842E+00 -2.75447E-01 -1.18252E+00  1.00887E-01 -1.23004E+00
  4.31999E-01 -1.16890E+00  6.85392E-01 -1.05883E+00  8.83672E-01 -9.56702E-01  1.08051E+00 -8.75306E-01
  1.31370E+00 -7.76787E-01  1.57101E+00 -6.05360E-01  1.79488E+00 -3.34361E-01  1.92228E+00  8.16978E-03
  1.92968E+00  3.54837E-01  1.84917E+00  6.43648E-01  1.74359E+00  8.58437E-01  1.65965E+00  1.03463E+00
  1.59449E+00  1.22627E+00  1.50087E+00  1.45961E+00  1.32672E+00  1.70845E+00  1.05907E+00  1.91009E+00
  7.38805E-01  2.00970E+00  4.35110E-01  1.99962E+00  1.98808E-01  1.92391E+00  2.97649E-02  1.84487E+00
 -1.17228E-01  1.79685E+00 -2.92851E-01  1.76242E+00 -5.10147E-01  1.68857E+00 -7.30666E-01  1.53062E+00
 -8.90368E-01  1.29030E+00 -9.45673E-01  1.01912E+00 -9.04844E-01  7.84437E-01 -8.21058E-01  6.23720E-01
 -7.52514E-01  5.21598E-01 -7.19828E-01  4.26650E-01 -6.92865E-01  2.95049E-01 -6.16781E-01  1.27770E-01
 -4.57358E-01 -2.68488E-02 -2.31132E-01 -1.07158E-01  2.54664E-03 -8.30580E-02  1.81580E-01  2.22154E-02
  2.83090E-01  1.49774E-01  3.35709E-01  2.48735E-01  3.93176E-01  3.12805E-01  4.89462E-01  3.82229E-01
  6.09560E-01  5.09823E-01  6.98099E-01  7.17014E-01  6.99227E-01  9.73293E-01  5.97602E-01  1.21470E+00
  4.29508E-01  1.38738E+00  2.55808E-01  1.48341E+00  1.17284E-01  1.54195E+00  6.12740E-03  1.61512E+00
 -1.24984E-01  1.72469E+00 -3.23302E-01  1.84244E+00 -5.96074E-01  1.90914E+00 -9.00584E-01  1.87764E+00
 -1.17176E+00  1.74763E+00 -1.36651E+00  1.56570E+00 -1.49138E+00  1.39087E+00 -1.59281E+00  1.25162E+00
 -1.71766E+00  1.12702E+00 -1.87403E+00  9.65950E-01 -2.02214E+00  7.29689E-01 -2.10223E+00  4.25537E-01
 -2.07818E+00  1.05834E-01 -1.96408E+00 -1.66842E-01 -1.81355E+00 -3.62067E-01 -1.68010E+00 -4.99626E-01
 -1.57854E+00 -6.29799E-01 -1.47651E+00 -7.91057E-01 -1.32244E+00 -9.77341E-01 -1.08847E+00 -1.13976E+00
 -7.95834E-01 -1.22137E+00 -5.03312E-01 -1.19879E+00 -2.67545E-01 -1.09907E+00 -1.05109E-01 -9.79294E-01
  1.51180E-02 -8.84338E-01  1.43762E-01 -8.14832E-01  3.08500E-01 -7.29393E-01  4.89615E-01 -5.79293E-01
  6.32085E-01 -3.49132E-01  6.85042E-01 -7.26150E-02  6.38736E-01  1.88539E-01  5.31108E-01  3.86634E-01
  4.19097E-01  5.19283E-01  3.36492E-01  6.26449E-01  2.70186E-01  7.55736E-01  1.72674E-01  9.22396E-01
  1.15847E-03  1.09442E+00 -2.46505E-01  1.21401E+00 -5.26293E-01  1.23917E+00 -7.77130E-01  1.17392E+00
 -9.62659E-01  1.06443E+00 -1.09416E+00  9.64068E-01 -1.21748E+00  8.93827E-01 -1.37415E+00  8.28168E-01
 -1.56619E+00  7.16691E-01 -1.75142E+00  5.25162E-01 -1.87274E+00  2.64673E-01 -1.89921E+00 -1.31647E-02
 -1.84797E+00 -2.51383E-01 -1.77038E+00 -4.26609E-01 -1.71309E+00 -5.62470E-01 -1.68350E+00 -7.07533E-01
 -1.64567E+00 -8.94667E-01 -1.54962E+00 -1.11275E+00 -1.37173E+00 -1.31213E+00 -1.13552E+00 -1.43978E+00
 -8.97038E-01 -1.47738E+00 -7.06036E-01 -1.45375E+00 -5.72069E-01 -1.42222E+00 -4.61160E-01 -1.42018E+00
 -3.25275E-01 -1.44147E+00 -1.42127E-01 -1.44242E+00  6.49173E-02 -1.37673E+00  2.41912E-01 -1.23277E+00
  3.42947E-01 -1.04492E+00  3.63097E-01 -8.70423E-01  3.40841E-01 -7.49231E-01  3.28250E-01 -6.77133E-01
  3.51576E-01 -6.12402E-01  3.92066E-01 -5.10658E-01  4.01403E-01 -3.61440E-01  3.39942E-01 -1.98725E-01
  2.08698E-01 -7.74551E-02  5.08379E-02 -3.38473E-02 -7.84387E-02 -5.95183E-02 -1.50849E-01 -1.08894E-01
 -1.83423E-01 -1.34195E-01 -2.22602E-01 -1.21449E-01 -3.06253E-01 -1.00328E-01 -4.32481E-01 -1.20476E-01
 -5.58884E-01 -2.12390E-01 -6.32767E-01 -3.62534E-01 -6.29450E-01 -5.21535E-01 -5.69699E-01 -6.39230E-01
 -5.03209E-01 -7.00078E-01 -4.70731E-01 -7.32231E-01 -4.73544E-01 -7.83581E-01 -4.73316E-01 -8.83078E-01
 -4.22323E-01 -1.01669E+00 -3.01036E-01 -1.13620E+00 -1.34577E-01 -1.19415E+00  2.43975E-02 -1.17844E+00
  1.33414E-01 -1.12052E+00  1.89989E-01 -1.07104E+00  2.31096E-01 -1.06142E+00  3.02856E-01 -1.08058E+00
  4.23547E-01 -1.08420E+00  5.67974E-01 -1.02945E+00  6.85020E-01 -9.08810E-01  7.35040E-01 -7.57319E-01
  7.18806E-01 -6.27807E-01  6.76164E-01 -5.52897E-01  6.55526E-01 -5.22438E-01  6.77354E-01 -4.93353E-01
  7.19254E-01 -4.24257E-01  7.33851E-01 -3.08556E-01  6.85802E-01 -1.80929E-01  5.79848E-01 -9.23401E-02
  4.58671E-01 -7.25299E-02  3.72221E-01 -1.08358E-01  3.41727E-01 -1.54304E-01  3.45561E-01 -1.67087E-01
  3.37517E-01 -1.38148E-01  2.83514E-01 -9.94641E-02  1.88877E-01 -9.84103E-02  9.55350E-02 -1.60802E-01
  5.13158E-02 -2.70145E-01  7.46167E-02 -3.78785E-01  1.41147E-01 -4.42466E-01  2.02696E-01 -4.52165E-01
  2.23625E-01 -4.39181E-01  2.07457E-01 -4.49779E-01  1.93498E-01 -5.08698E-01  2.26173E-01 -5.99203E-01
  3.20377E-01 -6.74741E-01  4.49095E-01 -6.93330E-01  5.62629E-01 -6.48624E-01  6.24832E-01 -5.74194E-01
  6.38963E-01 -5.17874E-01  6.43677E-01 -5.05664E-01  6.82338E-01 -5.22500E-01  7.68969E-01 -5.24360E-01
  8.76639E-01 -4.72428E-01  9.57032E-01 -3.63378E-01  9.76314E-01 -2.32865E-01  9.40162E-01 -1.29613E-01
  8.89056E-01 -7.97581E-02  8.67500E-01 -6.83833E-02  8.90508E-01 -5.21206E-02  9.32705E-01  6.84746E-03
  9.48171E-01  1.11195E-01  9.05925E-01  2.25658E-01  8.14117E-01  3.03094E-01  7.14659E-01  3.19611E-01
  6.52399E-01  2.92192E-01  6.42190E-01  2.65545E-01  6.58736E-01  2.78214E-01  6.56777E-01  3.33626E-01
  6.06232E-01  3.97944E-01  5.15654E-01  4.26233E-01  4.26279E-01  3.97051E-01  3.81249E-01  3.29252E-01
  3.93337E-01  2.68320E-01  4.35597E-01  2.52645E-01  4.61919E-01  2.85256E-01  4.41877E-01  3.32355E-01
  3.83478E-01  3.49646E-01  3.26676E-01  3.16437E-01  3.12651E-01  2.51703E-01  3.52204E-01  1.99991E-01
  4.17166E-01  1.97928E-01  4.61286E-01  2.46704E-01  4.54731E-01  3.11319E-01  4.06089E-01  3.47096E-01
  3.55301E-01  3.33329E-01  3.42970E-01  2.88618E-01  3.79347E-01  2.56381E-01  4.36446E-01  2.71594E-01
  4.69182E-01  3.34002E-01  4.49468E-01  4.08047E-01  3.87433E-01  4.49504E-01  3.23757E-01  4.38624E-01
  2.98995E-01  3.94715E-01  3.23145E-01  3.61206E-01  3.68449E-01  3.72592E-01  3.90781E-01  4.28315E-01
  3.63344E-01  4.93297E-01  2.97137E-01  5.24659E-01  2.32751E-01  5.04307E-01  2.09758E-01  4.52736E-01
  2.36910E-01  4.13653E-01  2.85668E-01  4.21125E-01  3.11865E-01  4.74121E-01  2.89054E-01  5.37669E-01
  2.28270E-01  5.69640E-01  1.69336E-01  5.52817E-01  1.50371E-01  5.07968E-01  1.78642E-01  4.78087E-01
  2.24817E-01  4.95799E-01  2.44900E-01  5.58617E-01  2.13203E-01  6.30748E-01  1.41404E-01  6.69985E-01
  6.93485E-02  6.59289E-01  3.46504E-02  6.19182E-01  4.41619E-02  5.91642E-01  6.88888E-02  6.07804E-01
  6.61297E-02  6.63938E-01  1.20182E-02  7.23881E-01 -8.01722E-02  7.46013E-01 -1.69761E-01  7.14334E-01
 -2.18995E-01  6.50142E-01 -2.21000E-01  5.95571E-01 -2.04236E-01  5.81541E-01 -2.10195E-01  6.04406E-01
 -2.61294E-01  6.28945E-01 -3.43316E-01  6.15352E-01 -4.15645E-01  5.49739E-01 -4.41496E-01  4.55073E-01
 -4.15250E-01  3.74324E-01 -3.66252E-01  3.38632E-01 -3.36299E-01  3.44594E-01 -3.47926E-01  3.57786E-01
 -3.87521E-01  3.39745E-01 -4.15983E-01  2.77908E-01 -3.98779E-01  1.95829E-01 -3.32606E-01  1.35981E-01
 -2.48495E-01  1.28201E-01 -1.89061E-01  1.67659E-01 -1.77158E-01  2.18953E-01 -1.99644E-01  2.43136E-01
 -2.18439E-01  2.27153E-01 -2.00401E-01  1.93424E-01 -1.43344E-01  1.82376E-01 -7.84803E-02  2.21242E-01
 -4.75057E-02  3.02759E-01 -7.16817E-02  3.89875E-01 -1.36301E-01  4.42838E-01 -2.02206E-01  4.48162E-01
 -2.35555E-01  4.27577E-01 -2.33254E-01  4.20326E-01 -2.24849E-01  4.52284E-01 -2.49519E-01  5.15368E-01
 -3.25651E-01  5.72774E-01 -4.36066E-01  5.86077E-01 -5.40019E-01  5.43630E-01 -6.02871E-01  4.68843E-01
 -6.20964E-01  4.02150E-01 -6.22961E-01  3.70396E-01 -6.46748E-01  3.66846E-01 -7.09486E-01  3.56884E-01
 -7.93525E-01  3.05010E-01 -8.58823E-01  2.02632E-01 -8.72436E-01  7.56137E-02 -8.32753E-01 -3.41065E-02
 -7.70213E-01 -9.88750E-02 -7.24035E-01 -1.24723E-01 -7.12656E-01 -1.45213E-01 -7.20245E-01 -1.94524E-01
 -7.09430E-01 -2.80227E-01 -6.50528E-01 -3.76398E-01 -5.45081E-01 -4.42248E-01 -4.25906E-01 -4.52150E-01
 -3.33642E-01 -4.14348E-01 -2.87562E-01 -3.64274E-01 -2.72677E-01 -3.37614E-01 -2.52794E-01 -3.43564E-01
 -1.99501E-01 -3.58492E-01 -1.15071E-01 -3.44723E-01 -3.19379E-02 -2.80142E-01  1.08490E-02 -1.76167E-01
 -3.66533E-03 -7.04983E-02 -5.81414E-02 -1.59934E-04 -1.14412E-01  2.47734E-02 -1.42336E-01  2.69595E-02
 -1.42175E-01  4.28296E-02 -1.43591E-01  9.33590E-02 -1.82131E-01  1.66758E-01 -2.71059E-01  2.26186E-01
 -3.89899E-01  2.36624E-01 -4.98339E-01  1.90569E-01 -5.64962E-01  1.13158E-01 -5.89082E-01  4.29288E-02
 -5.99272E-01  2.85950E-03 -6.29824E-01 -1.63939E-02 -6.93068E-01 -4.84333E-02 -7.68569E-01 -1.24428E-01
 -8.17356E-01 -2.48074E-01 -8.10397E-01 -3.91167E-01 -7.49797E-01 -5.13139E-01 -6.66729E-01 -5.89755E-01
 -5.97760E-01 -6.29316E-01 -5.57554E-01 -6.64226E-01 -5.28584E-01 -7.24435E-01 -4.75575E-01 -8.12968E-01
 -3.73638E-01 -9.02102E-01 -2.28756E-01 -9.53061E-01 -7.50833E-02 -9.44327E-01  4.88612E-02 -8.87166E-01
  1.27124E-01 -8.16694E-01  1.76059E-01 -7.65346E-01  2.29641E-01 -7.38850E-01  3.11613E-01 -7.12865E-01
  4.15624E-01 -6.52741E-01  5.08428E-01 -5.41341E-01  5.53707E-01 -3.93831E-01  5.38484E-01 -2.48232E-01
  4.82198E-01 -1.38891E-01  4.21650E-01 -7.29144E-02  3.83299E-01 -2.72979E-02  3.63888E-01  3.12204E-02
