 $NMID ID='Asp', FMTDAT='(8E13.5)'
 TRAMP=1., VOLUME=1. $END
  2.15358E+00  7.02146E-02  1.96453E+00  7.43603E-01  1.54500E+00  1.26410E+00  1.00605E+00  1.56116E+00
  4.61769E-01  1.64101E+00 -1.80605E-02  1.55936E+00 -4.16902E-01  1.37233E+00 -7.41329E-01  1.10349E+00
 -9.80465E-01  7.49801E-01 -1.09029E+00  3.18420E-01 -1.01751E+00 -1.38764E-01 -7.45583E-01 -5.24628E-01
 -3.26792E-01 -7.36127E-01  1.27166E-01 -7.18162E-01  4.93359E-01 -4.94251E-01  6.93394E-01 -1.51980E-01
  7.19861E-01  2.06558E-01  6.18041E-01  5.14538E-01  4.39963E-01  7.56938E-01  2.06953E-01  9.46392E-01
 -9.16163E-02  1.08179E+00 -4.64923E-01  1.12536E+00 -8.81763E-01  1.01865E+00 -1.26014E+00  7.26792E-01
 -1.49792E+00  2.77118E-01 -1.52552E+00 -2.38911E-01 -1.34389E+00 -7.05232E-01 -1.02082E+00 -1.03632E+00
 -6.48613E-01 -1.21072E+00 -2.93539E-01 -1.26167E+00  2.74766E-02 -1.23546E+00  3.29273E-01 -1.15067E+00
  6.17531E-01 -9.89693E-01  8.59427E-01 -7.27505E-01  9.91151E-01 -3.73389E-01  9.58443E-01  9.39958E-03
  7.59967E-01  3.24604E-01  4.59863E-01  4.92256E-01  1.58007E-01  4.91943E-01 -6.23922E-02  3.69370E-01
 -1.73591E-01  2.02104E-01 -2.02604E-01  4.99827E-02 -1.94526E-01 -7.39911E-02 -1.69726E-01 -1.92938E-01
 -1.08175E-01 -3.26873E-01  2.76446E-02 -4.57836E-01  2.50100E-01 -5.28454E-01  5.18604E-01 -4.76882E-01
  7.50393E-01 -2.82573E-01  8.64487E-01  1.18906E-02  8.28051E-01  3.20447E-01  6.72046E-01  5.61675E-01
  4.65478E-01  7.01367E-01  2.67929E-01  7.60032E-01  9.54617E-02  7.82180E-01 -7.60370E-02  7.92638E-01
 -2.74899E-01  7.74106E-01 -4.94804E-01  6.83100E-01 -6.84671E-01  4.91497E-01 -7.76712E-01  2.20800E-01
 -7.32523E-01 -5.86733E-02 -5.72700E-01 -2.65119E-01 -3.67257E-01 -3.52873E-01 -1.93092E-01 -3.36074E-01
 -8.91137E-02 -2.71778E-01 -4.10497E-02 -2.15946E-01 -5.35885E-03 -1.85475E-01  4.76385E-02 -1.54072E-01
  1.05326E-01 -8.35837E-02  1.21128E-01  3.47242E-02  5.31522E-02  1.61990E-01 -9.68554E-02  2.31947E-01
 -2.74892E-01  1.95333E-01 -4.04372E-01  5.55509E-02 -4.33186E-01 -1.31262E-01 -3.64038E-01 -2.92223E-01
 -2.46408E-01 -3.83434E-01 -1.37091E-01 -4.12222E-01 -5.94458E-02 -4.20687E-01  8.18545E-03 -4.44583E-01
  1.07084E-01 -4.79940E-01  2.56343E-01 -4.83465E-01  4.27723E-01 -4.06625E-01  5.57574E-01 -2.37331E-01
  5.87933E-01 -1.69599E-02  5.06527E-01  1.81163E-01  3.55873E-01  2.96772E-01  2.04620E-01  3.18438E-01
  1.02365E-01  2.84340E-01  5.11783E-02  2.48526E-01  1.41093E-02  2.38817E-01 -4.72344E-02  2.38276E-01
 -1.35776E-01  2.03758E-01 -2.11652E-01  1.06569E-01 -2.20563E-01 -3.67261E-02 -1.36426E-01 -1.67869E-01
  1.42632E-02 -2.23310E-01  1.65428E-01 -1.76859E-01  2.52884E-01 -5.70362E-02  2.54054E-01  7.36322E-02
  1.97149E-01  1.61782E-01  1.34055E-01  1.96742E-01  9.83174E-02  2.10078E-01  8.04325E-02  2.42771E-01
  3.89801E-02  3.06200E-01 -6.14381E-02  3.67554E-01 -2.15123E-01  3.71489E-01 -3.70714E-01  2.82021E-01
 -4.61721E-01  1.12917E-01 -4.50121E-01 -7.67555E-02 -3.50923E-01 -2.19284E-01 -2.19766E-01 -2.80432E-01
 -1.13156E-01 -2.76397E-01 -5.11749E-02 -2.54034E-01 -1.01225E-02 -2.50405E-01  5.04904E-02 -2.62954E-01
  1.48303E-01 -2.53052E-01  2.57034E-01 -1.79902E-01  3.20895E-01 -3.84456E-02  2.94191E-01  1.28393E-01
  1.76426E-01  2.53447E-01  1.62610E-02  2.88176E-01 -1.19119E-01  2.33255E-01 -1.86847E-01  1.34585E-01
 -1.92097E-01  4.82543E-02 -1.76000E-01  1.03531E-03 -1.78075E-01 -2.41672E-02 -2.02497E-01 -6.77777E-02
 -2.14187E-01 -1.54616E-01 -1.67648E-01 -2.67197E-01 -4.62963E-02 -3.52502E-01  1.18194E-01 -3.57845E-01
  2.62068E-01 -2.69191E-01  3.29929E-01 -1.23078E-01  3.09844E-01  1.70320E-02  2.37476E-01  1.02590E-01
  1.66796E-01  1.29185E-01  1.29861E-01  1.32104E-01  1.15938E-01  1.52724E-01  8.51999E-02  2.02102E-01
  5.73850E-03  2.49935E-01 -1.15092E-01  2.47448E-01 -2.29649E-01  1.66729E-01 -2.80824E-01  2.63263E-02
 -2.41957E-01 -1.16882E-01 -1.35975E-01 -2.04118E-01 -1.93744E-02 -2.12692E-01  5.70115E-02 -1.67631E-01
  8.12842E-02 -1.18873E-01  8.33571E-02 -1.01779E-01  1.06152E-01 -1.10966E-01  1.67741E-01 -1.07031E-01
  2.43696E-01 -5.05714E-02  2.83355E-01  6.29044E-02  2.47762E-01  1.94235E-01  1.40469E-01  2.85224E-01
  7.64372E-03  2.98464E-01 -9.29329E-02  2.42633E-01 -1.30975E-01  1.64409E-01 -1.21859E-01  1.13249E-01
 -1.10677E-01  1.05620E-01 -1.34735E-01  1.15424E-01 -1.93199E-01  9.74155E-02 -2.46924E-01  2.53734E-02
 -2.48500E-01 -8.42801E-02 -1.79568E-01 -1.81586E-01 -6.69552E-02 -2.18176E-01  3.47721E-02 -1.81976E-01
  8.13350E-02 -1.05351E-01  6.88248E-02 -4.06522E-02  3.34024E-02 -2.17011E-02  2.11908E-02 -4.02710E-02
  5.14370E-02 -5.51373E-02  1.00995E-01 -2.65341E-02  1.21919E-01  5.03751E-02  7.88120E-02  1.38612E-01
 -2.23861E-02  1.84527E-01 -1.36046E-01  1.56177E-01 -2.07797E-01  6.61751E-02 -2.11626E-01 -3.79859E-02
 -1.65440E-01 -1.08597E-01 -1.13881E-01 -1.31096E-01 -9.19289E-02 -1.31080E-01 -9.72932E-02 -1.50085E-01
 -9.27342E-02 -2.09021E-01 -3.65773E-02 -2.87540E-01  8.18305E-02 -3.35515E-01  2.28873E-01 -3.08447E-01
  3.46111E-01 -2.00412E-01  3.88323E-01 -4.99149E-02  3.52100E-01  8.57036E-02  2.74187E-01  1.68139E-01
  2.01550E-01  2.00183E-01  1.56322E-01  2.16140E-01  1.22236E-01  2.48866E-01  6.25174E-02  2.99383E-01
 -4.50072E-02  3.32836E-01 -1.83029E-01  3.04362E-01 -2.99957E-01  1.95420E-01 -3.42258E-01  3.29241E-02
 -2.90391E-01 -1.23835E-01 -1.71878E-01 -2.19392E-01 -4.20454E-02 -2.35163E-01  5.29921E-02 -1.95596E-01
  1.03637E-01 -1.43989E-01  1.34733E-01 -1.07239E-01  1.77027E-01 -7.66676E-02  2.35177E-01 -1.93637E-02
  2.77794E-01  8.91650E-02  2.57998E-01  2.36767E-01  1.49438E-01  3.73491E-01 -2.94335E-02  4.39759E-01
 -2.21636E-01  4.03885E-01 -3.64640E-01  2.81702E-01 -4.26394E-01  1.24231E-01 -4.18726E-01 -1.70249E-02
 -3.79572E-01 -1.21268E-01 -3.38878E-01 -2.03503E-01 -2.94831E-01 -2.91167E-01 -2.18635E-01 -3.91695E-01
 -8.37646E-02 -4.77214E-01  1.03453E-01 -4.99286E-01  2.96479E-01 -4.23427E-01  4.31609E-01 -2.57595E-01
  4.65626E-01 -5.28570E-02  4.01048E-01  1.25115E-01  2.80996E-01  2.33476E-01  1.58104E-01  2.71967E-01
  6.08776E-02  2.71901E-01 -1.79413E-02  2.64378E-01 -1.03651E-01  2.52998E-01 -2.07751E-01  2.12222E-01
 -3.07914E-01  1.12436E-01 -3.56536E-01 -4.81549E-02 -3.12533E-01 -2.30273E-01 -1.72900E-01 -3.70679E-01
  1.98808E-02 -4.18442E-01  2.00866E-01 -3.64590E-01  3.19930E-01 -2.44025E-01  3.66787E-01 -1.09054E-01
  3.66733E-01  5.35575E-03  3.52151E-01  9.90005E-02  3.32735E-01  1.94689E-01  2.87732E-01  3.08005E-01
  1.86060E-01  4.23357E-01  1.83879E-02  4.96145E-01 -1.84353E-01  4.80727E-01 -3.61635E-01  3.63767E-01
 -4.56863E-01  1.77879E-01 -4.50105E-01 -1.52384E-02 -3.66681E-01 -1.60506E-01 -2.56074E-01 -2.38556E-01
 -1.57398E-01 -2.68044E-01 -7.70895E-02 -2.81262E-01  5.44624E-03 -2.93007E-01  1.10144E-01 -2.87161E-01
  2.29303E-01 -2.31340E-01  3.23450E-01 -1.08017E-01  3.44514E-01  6.24852E-02  2.69631E-01  2.25982E-01
  1.20299E-01  3.23991E-01 -4.79420E-02  3.28129E-01 -1.78338E-01  2.54723E-01 -2.44804E-01  1.49593E-01
 -2.60380E-01  5.49401E-02 -2.57592E-01 -1.68756E-02 -2.57040E-01 -8.37495E-02 -2.48942E-01 -1.69548E-01
 -2.01923E-01 -2.75145E-01 -9.20597E-02 -3.68275E-01  7.06611E-02 -4.01194E-01  2.39730E-01 -3.43636E-01
  3.56761E-01 -2.06514E-01  3.86211E-01 -3.82654E-02  3.35215E-01  1.04049E-01  2.44541E-01  1.88145E-01
  1.58019E-01  2.20581E-01  9.34833E-02  2.32381E-01  3.65365E-02  2.48478E-01 -3.93312E-02  2.65067E-01
 -1.42896E-01  2.52421E-01 -2.49635E-01  1.80885E-01 -3.13411E-01  4.97284E-02 -2.97420E-01 -1.03973E-01
 -2.01413E-01 -2.24329E-01 -6.45993E-02 -2.70377E-01  5.83977E-02 -2.40222E-01  1.31173E-01 -1.68247E-01
  1.54463E-01 -9.80943E-02  1.57333E-01 -5.19447E-02  1.68527E-01 -1.89078E-02  1.90585E-01  2.95695E-02
  1.96801E-01  1.10072E-01  1.53334E-01  2.06964E-01  4.93220E-02  2.77892E-01 -8.85056E-02  2.81642E-01
 -2.08677E-01  2.07773E-01 -2.66554E-01  8.57184E-02 -2.51729E-01 -3.36988E-02 -1.91367E-01 -1.10905E-01
 -1.27602E-01 -1.40487E-01 -8.63348E-02 -1.48070E-01 -6.08877E-02 -1.64558E-01 -2.23202E-02 -1.98098E-01
  5.22196E-02 -2.25541E-01  1.55483E-01 -2.10046E-01  2.49484E-01 -1.31345E-01  2.89423E-01 -5.37207E-03
  2.54605E-01  1.22188E-01  1.63240E-01  2.04247E-01  6.00273E-02  2.21871E-01 -1.42850E-02  1.93442E-01
 -4.87938E-02  1.57170E-01 -6.48833E-02  1.40620E-01 -9.41827E-02  1.40463E-01 -1.49494E-01  1.27572E-01
 -2.11297E-01  7.31674E-02 -2.40420E-01 -2.43789E-02 -2.07418E-01 -1.32994E-01 -1.16373E-01 -2.06169E-01
 -4.89700E-03 -2.13996E-01  8.00324E-02 -1.62958E-01  1.12597E-01 -8.98444E-02  1.02563E-01 -3.45749E-02
  8.33443E-02 -1.24233E-02  8.33567E-02 -6.34128E-03  1.02763E-01  1.53502E-02  1.13394E-01  6.99282E-02
  8.18475E-02  1.42494E-01 -1.96473E-03  1.93444E-01 -1.12804E-01  1.85946E-01 -2.04176E-01  1.12925E-01
 -2.38377E-01  3.29318E-03 -2.10388E-01 -9.72821E-02 -1.48141E-01 -1.56739E-01 -8.95038E-02 -1.75587E-01
 -5.37267E-02 -1.80785E-01 -2.90258E-02 -1.99923E-01  1.45494E-02 -2.35957E-01  9.71799E-02 -2.62198E-01
  2.08044E-01 -2.41680E-01  3.07547E-01 -1.56385E-01  3.52006E-01 -2.41174E-02  3.22774E-01  1.10047E-01
  2.38294E-01  2.01758E-01  1.40362E-01  2.34379E-01  6.50744E-02  2.25386E-01  2.02124E-02  2.08220E-01
 -1.44246E-02  2.04066E-01 -6.48380E-02  2.05362E-01 -1.36545E-01  1.83599E-01 -2.04989E-01  1.15231E-01
 -2.30623E-01  5.51547E-03 -1.87745E-01 -1.08552E-01 -8.54513E-02 -1.79307E-01  3.52559E-02 -1.78505E-01
  1.26456E-01 -1.14529E-01  1.62263E-01 -2.44070E-02  1.50865E-01  5.29390E-02  1.21685E-01  1.02021E-01
  9.84540E-02  1.36046E-01  7.93502E-02  1.79043E-01  3.95886E-02  2.39537E-01 -4.56039E-02  2.96875E-01
 -1.75555E-01  3.11610E-01 -3.16363E-01  2.52861E-01 -4.17752E-01  1.22389E-01 -4.42996E-01 -4.27908E-02
 -3.90457E-01 -1.91646E-01 -2.91418E-01 -2.88968E-01 -1.86480E-01 -3.32430E-01 -9.85139E-02 -3.45351E-01
 -2.21613E-02 -3.51999E-01  6.31146E-02 -3.55192E-01  1.67633E-01 -3.33766E-01  2.74396E-01 -2.61866E-01
