 $NMID ID='Cr', FMTDAT='(8E13.5)'
 TRAMP=1., VOLUME=1. $END
  5.10000E+00  5.29958E-16  4.88653E+00  1.29079E+00  4.30688E+00  2.42154E+00  3.46988E+00  3.29101E+00
  2.49477E+00  3.87128E+00  1.46619E+00  4.18255E+00  4.26855E-01  4.24744E+00 -5.92142E-01  4.06217E+00
 -1.53227E+00  3.60713E+00 -2.29528E+00  2.88765E+00 -2.77214E+00  1.97131E+00 -2.89533E+00  9.89355E-01
 -2.67740E+00  9.58681E-02 -2.20767E+00 -5.90075E-01 -1.60852E+00 -1.02125E+00 -9.81760E-01 -1.21550E+00
 -3.81544E-01 -1.21466E+00  1.71153E-01 -1.04278E+00  6.49159E-01 -6.96067E-01  9.90419E-01 -1.71042E-01
  1.10667E+00  4.93421E-01  9.26688E-01  1.19601E+00  4.43798E-01  1.79528E+00 -2.67761E-01  2.16292E+00
 -1.08090E+00  2.23333E+00 -1.86968E+00  2.01687E+00 -2.55263E+00  1.57077E+00 -3.09772E+00  9.52166E-01
 -3.49121E+00  1.89390E-01 -3.69948E+00 -7.08030E-01 -3.65773E+00 -1.71121E+00 -3.29786E+00 -2.73884E+00
 -2.59650E+00 -3.65935E+00 -1.60752E+00 -4.33243E+00 -4.53193E-01 -4.66381E+00  7.22066E-01 -4.63691E+00
  1.80457E+00 -4.30136E+00  2.73604E+00 -3.72940E+00  3.49736E+00 -2.97396E+00  4.06923E+00 -2.05883E+00
  4.40476E+00 -1.00552E+00  4.43828E+00  1.28042E-01  4.12619E+00  1.23122E+00  3.48929E+00  2.16491E+00
  2.62363E+00  2.81326E+00  1.66890E+00  3.12877E+00  7.54251E-01  3.14029E+00 -4.24281E-02  2.92061E+00
 -6.96716E-01  2.53872E+00 -1.20516E+00  2.03186E+00 -1.54766E+00  1.41579E+00 -1.67688E+00  7.21177E-01
 -1.54498E+00  2.36897E-02 -1.14787E+00 -5.60588E-01 -5.52382E-01 -9.16040E-01  1.16743E-01 -9.78480E-01
  7.24300E-01 -7.61243E-01  1.17531E+00 -3.38941E-01  1.43608E+00  1.98159E-01  1.51507E+00  7.85721E-01
  1.42276E+00  1.39422E+00  1.14450E+00  2.00257E+00  6.48926E-01  2.56145E+00 -7.40836E-02  2.97958E+00
 -9.75966E-01  3.14837E+00 -1.94363E+00  2.99083E+00 -2.83368E+00  2.50124E+00 -3.52563E+00  1.74756E+00
 -3.95932E+00  8.35406E-01 -4.13342E+00 -1.40451E-01 -4.07095E+00 -1.12307E+00 -3.78154E+00 -2.08272E+00
 -3.25094E+00 -2.98169E+00 -2.46614E+00 -3.74678E+00 -1.45571E+00 -4.27533E+00 -3.11947E-01 -4.47493E+00
  8.25860E-01 -4.31007E+00  1.81937E+00 -3.82268E+00  2.57928E+00 -3.11139E+00  3.08245E+00 -2.28436E+00
  3.34991E+00 -1.41843E+00  3.40593E+00 -5.51617E-01  3.25129E+00  2.90471E-01  2.87151E+00  1.05963E+00
  2.27241E+00  1.67317E+00  1.51343E+00  2.03854E+00  7.09556E-01  2.09925E+00 -4.26690E-03  1.86939E+00
 -5.24508E-01  1.43108E+00 -8.12250E-01  8.95832E-01 -8.87685E-01  3.56453E-01 -7.93537E-01 -1.38032E-01
 -5.57160E-01 -5.70232E-01 -1.80380E-01 -9.19477E-01  3.36524E-01 -1.13554E+00  9.57623E-01 -1.14520E+00
  1.59300E+00 -8.89846E-01  2.11778E+00 -3.67476E-01  2.41912E+00  3.52319E-01  2.44048E+00  1.15293E+00
  2.19389E+00  1.91890E+00  1.73446E+00  2.57509E+00  1.11812E+00  3.09209E+00  3.75075E-01  3.45885E+00
 -4.82455E-01  3.64841E+00 -1.42688E+00  3.60680E+00 -2.38559E+00  3.27675E+00 -3.24214E+00  2.63992E+00
 -3.87244E+00  1.74602E+00 -4.19340E+00  7.05458E-01 -4.19150E+00 -3.51573E-01 -3.91298E+00 -1.32246E+00
 -3.42511E+00 -2.15497E+00 -2.77813E+00 -2.83336E+00 -1.99543E+00 -3.34338E+00 -1.09655E+00 -3.64708E+00
 -1.31633E-01 -3.68947E+00  8.03489E-01 -3.43406E+00  1.58794E+00 -2.90044E+00  2.12133E+00 -2.17433E+00
  2.36393E+00 -1.38006E+00  2.34437E+00 -6.32305E-01  2.13089E+00  6.70525E-04  1.78856E+00  4.99661E-01
  1.35339E+00  8.65846E-01  8.40522E-01  1.08677E+00  2.76167E-01  1.12583E+00 -2.75227E-01  9.44967E-01
 -7.14115E-01  5.43544E-01 -9.41447E-01 -1.71687E-02 -9.03783E-01 -6.25096E-01 -6.16813E-01 -1.15921E+00
 -1.51286E-01 -1.53493E+00  4.07683E-01 -1.72350E+00  9.98359E-01 -1.73548E+00  1.59132E+00 -1.58480E+00
  2.16670E+00 -1.26374E+00  2.68154E+00 -7.49229E-01  3.05680E+00 -3.58549E-02  3.19834E+00  8.30878E-01
  3.04000E+00  1.74885E+00  2.57891E+00  2.58924E+00  1.87815E+00  3.24388E+00  1.03481E+00  3.65898E+00
  1.36564E-01  3.83444E+00 -7.63354E-01  3.79333E+00 -1.63748E+00  3.54772E+00 -2.45312E+00  3.08824E+00
 -3.14734E+00  2.40552E+00 -3.63139E+00  1.52572E+00 -3.82522E+00  5.30602E-01 -3.69886E+00 -4.56726E-01
 -3.29094E+00 -1.31404E+00 -2.69074E+00 -1.96297E+00 -1.99614E+00 -2.38486E+00 -1.27661E+00 -2.60145E+00
 -5.65734E-01 -2.63826E+00  1.15831E-01 -2.49988E+00  7.28973E-01 -2.17622E+00  1.20463E+00 -1.67348E+00
  1.46474E+00 -1.04392E+00  1.46255E+00 -3.88234E-01  1.21339E+00  1.75554E-01  7.92859E-01  5.57581E-01
  3.02662E-01  7.26083E-01 -1.72564E-01  7.02938E-01 -5.88324E-01  5.31133E-01 -9.30168E-01  2.40374E-01
 -1.18271E+00 -1.63035E-01 -1.30559E+00 -6.75757E-01 -1.23827E+00 -1.26457E+00 -9.32707E-01 -1.84960E+00
 -3.90479E-01 -2.32054E+00  3.23526E-01 -2.57806E+00  1.10261E+00 -2.57327E+00  1.84117E+00 -2.31920E+00
  2.47015E+00 -1.86828E+00  2.96259E+00 -1.27451E+00  3.30976E+00 -5.68854E-01  3.49022E+00  2.34817E-01
  3.45910E+00  1.11062E+00  3.16823E+00  1.99406E+00  2.60320E+00  2.78239E+00  1.80951E+00  3.36614E+00
  8.86389E-01  3.67227E+00 -4.92281E-02  3.68992E+00 -9.05205E-01  3.46209E+00 -1.63512E+00  3.05119E+00
 -2.22647E+00  2.50455E+00 -2.66955E+00  1.84470E+00 -2.93418E+00  1.08913E+00 -2.97474E+00  2.80884E-01
 -2.76096E+00 -4.97467E-01 -2.31127E+00 -1.14132E+00 -1.70219E+00 -1.56410E+00 -1.04423E+00 -1.73307E+00
 -4.39110E-01 -1.67653E+00  5.35257E-02 -1.45854E+00  4.18987E-01 -1.14040E+00  6.62266E-01 -7.56898E-01
  7.77272E-01 -3.22564E-01  7.36497E-01  1.40150E-01  5.10225E-01  5.76402E-01  1.00717E-01  9.00924E-01
 -4.35833E-01  1.02896E+00 -9.98647E-01  9.16179E-01 -1.47932E+00  5.79878E-01 -1.80241E+00  8.67878E-02
 -1.94331E+00 -4.83193E-01 -1.91389E+00 -1.07122E+00 -1.73046E+00 -1.64838E+00 -1.39062E+00 -2.19603E+00
 -8.77913E-01 -2.67676E+00 -1.90452E-01 -3.02213E+00  6.29519E-01 -3.15052E+00  1.49009E+00 -3.00497E+00
  2.27585E+00 -2.58469E+00  2.88989E+00 -1.94778E+00  3.28430E+00 -1.18308E+00  3.46002E+00 -3.71146E-01
  3.43986E+00  4.38735E-01  3.23758E+00  1.22162E+00  2.84767E+00  1.94956E+00  2.26353E+00  2.56883E+00
  1.50880E+00  3.00307E+00  6.55549E-01  3.18323E+00 -1.87777E-01  3.08419E+00 -9.13602E-01  2.74160E+00
 -1.45357E+00  2.23619E+00 -1.79309E+00  1.65638E+00 -1.95451E+00  1.06486E+00 -1.96426E+00  4.91083E-01
 -1.83011E+00 -4.86733E-02 -1.54568E+00 -5.23183E-01 -1.11753E+00 -8.75262E-01 -5.91643E-01 -1.03950E+00
 -5.61578E-02 -9.77602E-01  3.85740E-01 -7.05890E-01  6.56146E-01 -2.94016E-01  7.29366E-01  1.65221E-01
  6.28349E-01  5.94579E-01  3.95761E-01  9.53585E-01  6.27972E-02  1.23017E+00 -3.60770E-01  1.41319E+00
 -8.69215E-01  1.47044E+00 -1.43185E+00  1.35203E+00 -1.97770E+00  1.01868E+00 -2.40931E+00  4.74599E-01
 -2.63914E+00 -2.20059E-01 -2.62486E+00 -9.67971E-01 -2.37989E+00 -1.67283E+00 -1.95367E+00 -2.27140E+00
 -1.39769E+00 -2.73914E+00 -7.42817E-01 -3.06927E+00 -3.72013E-03 -3.24501E+00  7.95726E-01 -3.22919E+00
  1.59857E+00 -2.98127E+00  2.31447E+00 -2.48996E+00  2.84718E+00 -1.79655E+00  3.13270E+00 -9.89924E-01
  3.16254E+00 -1.74691E-01  2.97665E+00  5.66806E-01  2.63280E+00  1.19368E+00  2.17534E+00  1.69651E+00
  1.62569E+00  2.06956E+00  9.99328E-01  2.28948E+00  3.32869E-01  2.31884E+00 -3.02862E-01  2.13281E+00
 -8.17726E-01  1.74878E+00 -1.13741E+00  1.23508E+00 -1.23536E+00  6.89937E-01 -1.13949E+00  2.03458E-01
 -9.09917E-01 -1.72309E-01 -6.04403E-01 -4.26512E-01 -2.56403E-01 -5.67171E-01  1.20056E-01 -5.93390E-01
  5.05687E-01 -4.85275E-01  8.53838E-01 -2.20160E-01  1.09151E+00  1.97372E-01  1.14622E+00  7.15780E-01
  9.81288E-01  1.24441E+00  6.14949E-01  1.68613E+00  1.09796E-01  1.97357E+00 -4.59529E-01  2.08556E+00
 -1.03733E+00  2.03473E+00 -1.59554E+00  1.83883E+00 -2.11682E+00  1.49949E+00 -2.56863E+00  1.00544E+00
 -2.89175E+00  3.57312E-01 -3.01544E+00 -4.06030E-01 -2.89060E+00 -1.20219E+00 -2.51789E+00 -1.92805E+00
 -1.95053E+00 -2.49708E+00 -1.26943E+00 -2.86676E+00 -5.48184E-01 -3.03898E+00  1.68016E-01 -3.03612E+00
  8.56872E-01 -2.87307E+00  1.49485E+00 -2.54734E+00  2.03652E+00 -2.05448E+00  2.41652E+00 -1.41563E+00
  2.57560E+00 -6.94062E-01  2.49295E+00  1.50374E-02  2.20150E+00  6.17308E-01  1.77425E+00  1.05346E+00
  1.29102E+00  1.31257E+00  8.08261E-01  1.41746E+00  3.51714E-01  1.39516E+00 -6.61332E-02  1.25600E+00
 -4.20824E-01  9.96826E-01 -6.65426E-01  6.24469E-01 -7.45489E-01  1.79486E-01 -6.30046E-01 -2.60964E-01
 -3.36091E-01 -6.06681E-01  7.21875E-02 -7.90154E-01  5.10102E-01 -7.90766E-01  9.07128E-01 -6.31980E-01
  1.22638E+00 -3.55618E-01  1.45771E+00  6.39237E-03  1.59333E+00  4.41713E-01  1.60775E+00  9.42845E-01
  1.45994E+00  1.48152E+00  1.11785E+00  1.99470E+00  5.87510E-01  2.39628E+00 -7.56518E-02  2.60911E+00
 -7.83172E-01  2.59644E+00 -1.44752E+00  2.37167E+00 -2.01104E+00  1.98104E+00 -2.45157E+00  1.47315E+00
 -2.76405E+00  8.78150E-01 -2.93564E+00  2.10824E-01 -2.93569E+00 -5.07151E-01 -2.73014E+00 -1.22582E+00
 -2.31018E+00 -1.86608E+00 -1.71304E+00 -2.34360E+00 -1.01805E+00 -2.60256E+00 -3.18490E-01 -2.63659E+00
  3.12377E-01 -2.48284E+00  8.38866E-01 -2.19471E+00  1.25439E+00 -1.81359E+00  1.55671E+00 -1.35971E+00
  1.72841E+00 -8.46606E-01  1.73918E+00 -3.05221E-01  1.56901E+00  2.03993E-01  1.23435E+00  6.03647E-01
  7.96260E-01  8.30260E-01  3.42054E-01  8.62660E-01 -4.84392E-02  7.28296E-01 -3.29848E-01  4.83556E-01
 -4.94501E-01  1.82777E-01 -5.52732E-01 -1.41915E-01 -5.07774E-01 -4.76972E-01 -3.46018E-01 -8.05749E-01
 -5.06711E-02 -1.08855E+00  3.71898E-01 -1.26289E+00  8.74459E-01 -1.26677E+00  1.37549E+00 -1.06990E+00
  1.78792E+00 -6.90871E-01  2.05158E+00 -1.88050E-01  2.14816E+00  3.69174E-01  2.09059E+00  9.28453E-01
  1.89737E+00  1.46289E+00  1.57309E+00  1.95649E+00  1.11045E+00  2.38106E+00  5.11827E-01  2.68547E+00
 -1.87358E-01  2.80842E+00 -9.13553E-01  2.70758E+00 -1.57492E+00  2.38462E+00 -2.09445E+00  1.88805E+00
 -2.43465E+00  1.29124E+00 -2.59826E+00  6.61091E-01 -2.60712E+00  3.87030E-02 -2.47688E+00 -5.56306E-01
 -2.20744E+00 -1.10449E+00 -1.79600E+00 -1.56781E+00 -1.26134E+00 -1.89070E+00 -6.58782E-01 -2.02259E+00
