 $NMID ID='GABA', FMTDAT='(8E13.5)'
 TRAMP=1., VOLUME=1. $END
  3.52703E+00  2.30559E-01  3.02771E+00  1.69438E+00  1.94527E+00  2.74068E+00  5.67995E-01  3.16489E+00
 -7.73043E-01  2.94375E+00 -1.80773E+00  2.21233E+00 -2.38612E+00  1.19130E+00 -2.47974E+00  1.09183E-01
 -2.14631E+00 -8.45038E-01 -1.49257E+00 -1.53328E+00 -6.56583E-01 -1.86449E+00  1.96418E-01 -1.80017E+00
  8.87745E-01 -1.37460E+00  1.26433E+00 -7.10404E-01  1.25379E+00 -2.31282E-03  9.03502E-01  5.40567E-01
  3.72185E-01  7.73092E-01 -1.31791E-01  6.71679E-01 -4.36980E-01  3.36860E-01 -4.74240E-01 -6.19648E-02
 -2.87087E-01 -3.67513E-01  1.24822E-02 -4.95409E-01  3.09639E-01 -4.45313E-01  5.32251E-01 -2.67390E-01
  6.54794E-01 -1.66830E-02  6.71695E-01  2.70260E-01  5.71662E-01  5.65526E-01  3.38619E-01  8.24956E-01
 -2.13046E-02  9.78706E-01 -4.52310E-01  9.53959E-01 -8.50190E-01  7.18098E-01 -1.10064E+00  3.10504E-01
 -1.13345E+00 -1.64368E-01 -9.56675E-01 -5.83296E-01 -6.46419E-01 -8.61694E-01 -2.98869E-01 -9.84725E-01
  2.25193E-02 -9.92896E-01  3.08660E-01 -9.35276E-01  5.82759E-01 -8.26257E-01  8.54235E-01 -6.37960E-01
  1.08577E+00 -3.33049E-01  1.20021E+00  8.78589E-02  1.12399E+00  5.61081E-01  8.36432E-01  9.77531E-01
  3.89719E-01  1.23233E+00 -1.13850E-01  1.27278E+00 -5.70361E-01  1.11346E+00 -9.14352E-01  8.12403E-01
 -1.12539E+00  4.30702E-01 -1.20354E+00  7.69155E-03 -1.14021E+00 -4.31294E-01 -9.13263E-01 -8.46141E-01
 -5.13842E-01 -1.16251E+00  1.60174E-02 -1.28621E+00  5.68453E-01 -1.14950E+00  9.97800E-01 -7.59959E-01
  1.18124E+00 -2.16221E-01  1.07668E+00  3.25431E-01  7.41669E-01  7.16955E-01  3.01849E-01  8.78402E-01
 -1.10061E-01  8.17957E-01 -4.06619E-01  6.05859E-01 -5.61032E-01  3.25974E-01 -5.85798E-01  3.97621E-02
 -5.00238E-01 -2.17372E-01 -3.16239E-01 -4.15485E-01 -5.19036E-02 -5.12525E-01  2.43741E-01 -4.62651E-01
  4.83868E-01 -2.49318E-01  5.71259E-01  8.23363E-02  4.48761E-01  4.24032E-01  1.40094E-01  6.44397E-01
 -2.49667E-01  6.51051E-01 -5.79305E-01  4.37210E-01 -7.37050E-01  8.33724E-02 -6.87430E-01 -2.86435E-01
 -4.73416E-01 -5.65128E-01 -1.78359E-01 -7.02390E-01  1.22231E-01 -7.03901E-01  3.86366E-01 -5.99952E-01
  5.97032E-01 -4.13497E-01  7.35520E-01 -1.53558E-01  7.65885E-01  1.64047E-01  6.48670E-01  4.91124E-01
  3.75836E-01  7.44777E-01 -1.54160E-03  8.38621E-01 -3.79308E-01  7.30275E-01 -6.43037E-01  4.52167E-01
 -7.23003E-01  1.01455E-01 -6.25984E-01 -2.07511E-01 -4.23268E-01 -3.98571E-01 -2.04037E-01 -4.61978E-01
 -2.64214E-02 -4.39973E-01  1.01822E-01 -3.84203E-01  2.04209E-01 -3.17937E-01  2.97532E-01 -2.29719E-01
  3.67040E-01 -9.94442E-02  3.74578E-01  6.73480E-02  2.92453E-01  2.26944E-01  1.34854E-01  3.18890E-01
 -4.00380E-02  3.06272E-01 -1.61713E-01  2.03998E-01 -1.90874E-01  7.22638E-02 -1.42969E-01 -2.17107E-02
 -7.40307E-02 -4.65592E-02 -3.89552E-02 -2.32522E-02 -5.28372E-02 -3.58439E-03 -8.36209E-02 -2.72506E-02
 -8.08191E-02 -8.98754E-02 -1.80807E-02 -1.45874E-01  8.28250E-02 -1.43699E-01  1.64859E-01 -6.66791E-02
  1.75870E-01  5.14289E-02  1.06079E-01  1.47958E-01 -4.91682E-03  1.73894E-01 -9.63982E-02  1.25952E-01
 -1.28517E-01  4.48909E-02 -1.06673E-01 -1.75087E-02 -7.08777E-02 -3.69867E-02 -5.95970E-02 -3.14398E-02
 -7.69051E-02 -4.11105E-02 -8.88811E-02 -9.05445E-02 -5.23483E-02 -1.62749E-01  4.62408E-02 -2.06770E-01
  1.72391E-01 -1.74262E-01  2.61249E-01 -5.79965E-02  2.59837E-01  9.70257E-02  1.63482E-01  2.19329E-01
  1.98261E-02  2.55799E-01 -1.02531E-01  2.03714E-01 -1.57966E-01  1.07615E-01 -1.48836E-01  2.46182E-02
 -1.14802E-01 -1.53090E-02 -9.65692E-02 -2.49037E-02 -1.02850E-01 -4.09102E-02 -1.05893E-01 -8.73995E-02
 -6.82681E-02 -1.50823E-01  2.08498E-02 -1.87025E-01  1.29226E-01 -1.55365E-01  1.99182E-01 -5.36919E-02
  1.87269E-01  7.34440E-02  9.66263E-02  1.61126E-01 -2.25955E-02  1.66638E-01 -1.05884E-01  9.74250E-02
 -1.16710E-01  4.09690E-03 -6.80476E-02 -5.61142E-02 -8.16176E-03 -5.84078E-02  1.76944E-02 -2.36019E-02
  5.01480E-04  3.11689E-03 -2.90266E-02 -9.46537E-03 -2.83070E-02 -5.29724E-02  2.01433E-02 -8.61204E-02
  9.16354E-02 -6.82786E-02  1.35711E-01  6.21349E-03  1.13840E-01  9.97784E-02  2.97573E-02  1.56400E-01
 -7.08914E-02  1.41298E-01 -1.31837E-01  6.58207E-02 -1.25307E-01 -2.11486E-02 -6.99312E-02 -6.88288E-02
 -1.43775E-02 -6.05496E-02  5.95251E-04 -2.33163E-02 -2.71593E-02 -4.20794E-03 -6.08286E-02 -3.19369E-02
 -5.46554E-02 -9.29995E-02  8.70995E-03 -1.40662E-01  1.02080E-01 -1.30077E-01  1.71308E-01 -5.30022E-02
  1.73590E-01  5.41168E-02  1.07881E-01  1.34887E-01  1.48607E-02  1.52036E-01 -5.31895E-02  1.11716E-01
 -6.96469E-02  5.53219E-02 -4.99715E-02  2.57585E-02 -3.54238E-02  3.42650E-02 -5.72102E-02  5.32034E-02
 -1.09062E-01  4.01464E-02 -1.49746E-01 -2.54420E-02 -1.34082E-01 -1.21444E-01 -4.91485E-02 -1.94852E-01
  7.19663E-02 -1.98045E-01  1.69838E-01 -1.22915E-01  1.97820E-01 -7.49502E-03  1.52090E-01  8.98155E-02
  7.09626E-02  1.29361E-01  4.82455E-03  1.13971E-01 -2.02241E-02  8.06047E-02 -1.77938E-02  6.74956E-02
 -2.48656E-02  8.26768E-02 -6.72674E-02  9.82042E-02 -1.34376E-01  7.43585E-02 -1.83270E-01 -5.12543E-03
 -1.69881E-01 -1.14469E-01 -8.37646E-02 -1.99140E-01  4.01122E-02 -2.12100E-01  1.42210E-01 -1.46507E-01
  1.77177E-01 -4.06676E-02  1.42424E-01  4.84501E-02  7.60392E-02  8.36099E-02  2.64454E-02  6.95511E-02
  1.70230E-02  4.35350E-02  3.20930E-02  4.26125E-02  3.39342E-02  7.33040E-02 -3.27699E-03  1.06989E-01
 -6.95063E-02  1.04220E-01 -1.23922E-01  4.87716E-02 -1.25567E-01 -3.54258E-02 -6.62979E-02 -9.84001E-02
  1.95215E-02 -9.95368E-02  7.68856E-02 -3.80191E-02  6.81161E-02  4.46803E-02 -7.50303E-04  9.26320E-02
 -8.44187E-02  7.35138E-02 -1.30109E-01 -6.43649E-04 -1.13123E-01 -8.44959E-02 -5.04055E-02 -1.33004E-01
  1.66690E-02 -1.32017E-01  5.58527E-02 -1.03293E-01  6.75479E-02 -8.14505E-02  8.02920E-02 -8.19594E-02
  1.22243E-01 -8.59796E-02  1.91588E-01 -5.46799E-02  2.50021E-01  3.73915E-02  2.46037E-01  1.75565E-01
  1.51901E-01  3.06395E-01 -1.28734E-02  3.67894E-01 -1.89331E-01  3.27854E-01 -3.13290E-01  2.03184E-01
 -3.51891E-01  4.69802E-02 -3.17171E-01 -8.65122E-02 -2.48705E-01 -1.73260E-01 -1.80235E-01 -2.25152E-01
 -1.16318E-01 -2.68138E-01 -3.62632E-02 -3.11824E-01  7.90756E-02 -3.35568E-01  2.20120E-01 -3.02701E-01
  3.43934E-01 -1.92172E-01  3.97748E-01 -2.26771E-02  3.54240E-01  1.50703E-01  2.32390E-01  2.66919E-01
  8.76887E-02  2.95450E-01 -2.21433E-02  2.52852E-01 -7.17639E-02  1.87691E-01 -7.88490E-02  1.45183E-01
 -8.43010E-02  1.37401E-01 -1.17896E-01  1.40095E-01 -1.75406E-01  1.16889E-01 -2.23744E-01  5.12112E-02
 -2.29006E-01 -3.88983E-02 -1.84854E-01 -1.14234E-01 -1.18792E-01 -1.45226E-01 -7.11703E-02 -1.35722E-01
 -6.30354E-02 -1.20682E-01 -7.79086E-02 -1.38785E-01 -7.22942E-02 -2.00408E-01 -8.01097E-03 -2.75517E-01
  1.17327E-01 -3.11417E-01  2.64390E-01 -2.68069E-01  3.75487E-01 -1.45503E-01  4.10329E-01  1.63401E-02
  3.68452E-01  1.64578E-01  2.82841E-01  2.66759E-01  1.91016E-01  3.26096E-01  1.06456E-01  3.68291E-01
  1.23882E-02  4.11519E-01 -1.17645E-01  4.43898E-01 -2.88846E-01  4.26842E-01 -4.68532E-01  3.22744E-01
 -5.97897E-01  1.26527E-01 -6.24904E-01 -1.22811E-01 -5.35020E-01 -3.59926E-01 -3.58000E-01 -5.27817E-01
 -1.46672E-01 -6.04860E-01  5.57443E-02 -6.05844E-01  2.35411E-01 -5.58500E-01  4.01039E-01 -4.75468E-01
  5.57769E-01 -3.44510E-01  6.84276E-01 -1.45106E-01  7.33438E-01  1.21541E-01  6.58819E-01  4.13434E-01
  4.48955E-01  6.56830E-01  1.44322E-01  7.80095E-01 -1.76588E-01  7.50535E-01 -4.33912E-01  5.89684E-01
 -5.81811E-01  3.57605E-01 -6.20364E-01  1.18402E-01 -5.79344E-01 -8.87409E-02 -4.89372E-01 -2.54768E-01
 -3.63541E-01 -3.83137E-01 -2.02227E-01 -4.67713E-01 -1.40988E-02 -4.86837E-01  1.67485E-01 -4.20015E-01
  2.90340E-01 -2.73989E-01  3.11543E-01 -9.54270E-02  2.28889E-01  4.41794E-02  9.17165E-02  8.54393E-02
 -2.00201E-02  1.65924E-02 -3.75447E-02 -1.16497E-01  5.98345E-02 -2.33549E-01  2.35459E-01 -2.61863E-01
  4.17682E-01 -1.70853E-01  5.37135E-01  2.03936E-02  5.54376E-01  2.62372E-01  4.63440E-01  5.03244E-01
  2.76276E-01  7.04746E-01  6.75826E-03  8.38096E-01 -3.29475E-01  8.70403E-01 -6.99140E-01  7.60786E-01
 -1.03581E+00  4.77402E-01 -1.24465E+00  2.79118E-02 -1.23399E+00 -5.18633E-01 -9.59672E-01 -1.03905E+00
 -4.55791E-01 -1.39538E+00  1.68917E-01 -1.48770E+00  7.69315E-01 -1.29191E+00  1.21598E+00 -8.62884E-01
  1.43343E+00 -3.04961E-01  1.40823E+00  2.69551E-01  1.17132E+00  7.69760E-01  7.74048E-01  1.13281E+00
  2.76052E-01  1.31574E+00 -2.52001E-01  1.29038E+00 -7.23449E-01  1.05231E+00 -1.04497E+00  6.38852E-01
 -1.14492E+00  1.37755E-01 -1.00727E+00 -3.29238E-01 -6.88305E-01 -6.47313E-01 -3.00137E-01 -7.54423E-01
  3.43199E-02 -6.65647E-01  2.31621E-01 -4.60929E-01  2.75852E-01 -2.43250E-01  2.11173E-01 -9.19018E-02
  1.07766E-01 -3.65081E-02  2.49604E-02 -6.17229E-02 -7.04288E-03 -1.31859E-01  1.79641E-02 -2.14046E-01
  9.79096E-02 -2.84605E-01  2.30446E-01 -3.20212E-01  4.05034E-01 -2.89177E-01  5.87669E-01 -1.57844E-01
  7.16245E-01  8.68337E-02  7.18560E-01  4.13855E-01  5.47536E-01  7.44298E-01  2.12769E-01  9.76352E-01
 -2.13645E-01  1.02868E+00 -6.23872E-01  8.77463E-01 -9.19520E-01  5.64955E-01 -1.04909E+00  1.75248E-01
 -1.01724E+00 -2.06360E-01 -8.64736E-01 -5.24970E-01 -6.36624E-01 -7.61951E-01 -3.61527E-01 -9.17706E-01
 -5.34618E-02 -9.89615E-01  2.70901E-01 -9.64169E-01  5.78095E-01 -8.28534E-01  8.21410E-01 -5.89893E-01
  9.60998E-01 -2.84115E-01  9.84757E-01  3.60726E-02  9.12351E-01  3.26247E-01  7.77473E-01  5.69779E-01
  6.00980E-01  7.75722E-01  3.76013E-01  9.55284E-01  7.85877E-02  1.09431E+00 -3.01642E-01  1.14406E+00
 -7.31808E-01  1.04082E+00 -1.13006E+00  7.44485E-01 -1.39117E+00  2.72052E-01 -1.43028E+00 -2.96070E-01
 -1.21958E+00 -8.41605E-01 -7.98058E-01 -1.25073E+00 -2.52263E-01 -1.44933E+00  3.16361E-01 -1.41499E+00
  8.17340E-01 -1.16723E+00  1.18006E+00 -7.50842E-01  1.35146E+00 -2.27252E-01  1.29684E+00  3.23594E-01
