 $NMID ID='Glc', FMTDAT='(8E13.5)'
 TRAMP=1., VOLUME=1. $END
  6.04065E+00  5.02647E-02  5.84801E+00  1.13070E+00  5.39009E+00  2.09067E+00  4.75142E+00  2.87196E+00
  4.01250E+00  3.47799E+00  3.20967E+00  3.94407E+00  2.33388E+00  4.28930E+00  1.36771E+00  4.48730E+00
  3.30857E-01  4.47866E+00 -7.02053E-01  4.21568E+00 -1.62639E+00  3.70538E+00 -2.35786E+00  3.01756E+00
 -2.87146E+00  2.25114E+00 -3.20078E+00  1.48306E+00 -3.39911E+00  7.37053E-01 -3.49229E+00 -5.66469E-03
 -3.45903E+00 -7.63621E-01 -3.25323E+00 -1.51410E+00 -2.85059E+00 -2.18633E+00 -2.28334E+00 -2.69498E+00
 -1.63568E+00 -2.98937E+00 -1.00226E+00 -3.08180E+00 -4.39860E-01 -3.03363E+00  5.25184E-02 -2.90996E+00
  5.11329E-01 -2.73664E+00  9.62098E-01 -2.49159E+00  1.38491E+00 -2.13593E+00  1.71844E+00 -1.66029E+00
  1.89971E+00 -1.11007E+00  1.90941E+00 -5.69640E-01  1.78831E+00 -1.16260E-01  1.61206E+00  2.22022E-01
  1.44276E+00  4.73666E-01  1.29344E+00  6.91195E-01  1.13121E+00  9.04092E-01  9.15783E-01  1.09280E+00
  6.43195E-01  1.20340E+00  3.60938E-01  1.19134E+00  1.42371E-01  1.06081E+00  3.94375E-02  8.69166E-01
  4.91072E-02  6.92745E-01  1.18728E-01  5.79128E-01  1.86112E-01  5.21398E-01  2.24123E-01  4.73074E-01
  2.56364E-01  3.91718E-01  3.32636E-01  2.77700E-01  4.83385E-01  1.78479E-01  6.88214E-01  1.55077E-01
  8.82820E-01  2.36175E-01  9.99554E-01  3.94667E-01  1.01134E+00  5.64560E-01  9.46137E-01  6.85628E-01
  8.61506E-01  7.42396E-01  7.98725E-01  7.68448E-01  7.51422E-01  8.13397E-01  6.72305E-01  8.98099E-01
  5.12655E-01  9.92453E-01  2.64396E-01  1.03291E+00 -2.74120E-02  9.66654E-01 -2.91369E-01  7.89192E-01
 -4.75874E-01  5.47121E-01 -5.80079E-01  3.04110E-01 -6.46739E-01  9.58998E-02 -7.22890E-01 -9.17796E-02
 -8.18537E-01 -3.05964E-01 -8.94898E-01 -5.83352E-01 -8.91232E-01 -9.14366E-01 -7.69981E-01 -1.24191E+00
 -5.46089E-01 -1.49610E+00 -2.78371E-01 -1.63892E+00 -2.94290E-02 -1.68552E+00  1.75647E-01 -1.68638E+00
  3.60852E-01 -1.68430E+00  5.72767E-01 -1.67909E+00  8.36534E-01 -1.62670E+00  1.12804E+00 -1.47357E+00
  1.38368E+00 -1.19997E+00  1.54071E+00 -8.39571E-01  1.57780E+00 -4.60224E-01  1.52560E+00 -1.20437E-01
  1.43969E+00  1.65839E-01  1.35663E+00  4.29895E-01  1.26653E+00  7.14436E-01  1.12297E+00  1.03137E+00
  8.82375E-01  1.34364E+00  5.43074E-01  1.58509E+00  1.54009E-01  1.70381E+00 -2.13546E-01  1.69620E+00
 -5.10250E-01  1.60647E+00 -7.35856E-01  1.49214E+00 -9.29250E-01  1.38177E+00 -1.12951E+00  1.25692E+00
 -1.33800E+00  1.07167E+00 -1.51049E+00  7.94629E-01 -1.58566E+00  4.41199E-01 -1.52843E+00  7.13313E-02
 -1.35557E+00 -2.45891E-01 -1.12430E+00 -4.74485E-01 -8.92554E-01 -6.29145E-01 -6.80815E-01 -7.55440E-01
 -4.64191E-01 -8.88148E-01 -2.00134E-01 -1.01965E+00  1.29642E-01 -1.10250E+00  4.95310E-01 -1.08429E+00
  8.31628E-01 -9.48335E-01  1.07799E+00 -7.29382E-01  1.21593E+00 -4.92233E-01  1.27613E+00 -2.89363E-01
  1.31009E+00 -1.29180E-01  1.34815E+00  2.15381E-02  1.37583E+00  2.03469E-01  1.34626E+00  4.25285E-01
  1.21906E+00  6.49225E-01  9.95957E-01  8.12975E-01  7.25916E-01  8.71545E-01  4.75517E-01  8.27693E-01
  2.86699E-01  7.28079E-01  1.53348E-01  6.28210E-01  3.39016E-02  5.52706E-01 -1.10111E-01  4.80764E-01
 -2.79183E-01  3.67441E-01 -4.31271E-01  1.84207E-01 -5.11109E-01 -5.23865E-02 -4.91210E-01 -2.86004E-01
 -3.93499E-01 -4.56119E-01 -2.75152E-01 -5.37332E-01 -1.89230E-01 -5.53043E-01 -1.49644E-01 -5.53517E-01
 -1.26560E-01 -5.75263E-01 -7.52112E-02 -6.12608E-01  2.41825E-02 -6.22916E-01  1.46018E-01 -5.61324E-01
  2.34149E-01 -4.18423E-01  2.40931E-01 -2.32121E-01  1.61100E-01 -6.44497E-02  3.49974E-02  3.94140E-02
 -8.11606E-02  7.92760E-02 -1.55471E-01  9.43643E-02 -2.00731E-01  1.28750E-01 -2.59918E-01  1.94290E-01
 -3.68172E-01  2.59352E-01 -5.20456E-01  2.71909E-01 -6.69710E-01  1.99495E-01 -7.57177E-01  5.57004E-02
 -7.52239E-01 -1.06911E-01 -6.71901E-01 -2.32221E-01 -5.65521E-01 -2.97741E-01 -4.76583E-01 -3.25770E-01
 -4.10586E-01 -3.60545E-01 -3.33264E-01 -4.29143E-01 -2.00304E-01 -5.16112E-01  4.22300E-03 -5.71282E-01
  2.50068E-01 -5.45027E-01  4.77354E-01 -4.24417E-01  6.35225E-01 -2.43031E-01  7.13675E-01 -5.71237E-02
  7.44895E-01  9.38022E-02  7.73554E-01  2.12314E-01  8.18900E-01  3.35388E-01  8.57582E-01  4.99967E-01
  8.40302E-01  7.08205E-01  7.29653E-01  9.19051E-01  5.30472E-01  1.07284E+00  2.89674E-01  1.13053E+00
  6.55951E-02  1.09829E+00 -1.10119E-01  1.01899E+00 -2.49573E-01  9.37623E-01 -3.92139E-01  8.66692E-01
 -5.67385E-01  7.78065E-01 -7.65884E-01  6.27144E-01 -9.40310E-01  3.90935E-01 -1.03622E+00  9.09459E-02
 -1.02942E+00 -2.16610E-01 -9.41836E-01 -4.76134E-01 -8.24068E-01 -6.67055E-01 -7.17978E-01 -8.11705E-01
 -6.27576E-01 -9.51157E-01 -5.20079E-01 -1.10774E+00 -3.56021E-01 -1.26296E+00 -1.25294E-01 -1.36765E+00
  1.38492E-01 -1.37685E+00  3.76450E-01 -1.28302E+00  5.42008E-01 -1.12245E+00  6.29500E-01 -9.50172E-01
  6.72516E-01 -8.02123E-01  7.13641E-01 -6.73150E-01  7.68775E-01 -5.27051E-01  8.13199E-01 -3.30687E-01
  7.99928E-01 -8.59396E-02  6.96375E-01  1.65005E-01  5.11470E-01  3.65290E-01  2.92590E-01  4.80788E-01
  9.45081E-02  5.21213E-01 -5.63628E-02  5.29242E-01 -1.75686E-01  5.46112E-01 -3.02914E-01  5.79846E-01
 -4.65258E-01  6.00091E-01 -6.51536E-01  5.63316E-01 -8.15916E-01  4.49041E-01 -9.08882E-01  2.79456E-01
 -9.12075E-01  1.07380E-01 -8.50777E-01 -1.85435E-02 -7.74684E-01 -8.53275E-02 -7.21563E-01 -1.20318E-01
 -6.91207E-01 -1.65898E-01 -6.49177E-01 -2.43675E-01 -5.57160E-01 -3.35468E-01 -4.06657E-01 -3.95533E-01
 -2.30220E-01 -3.84757E-01 -8.15214E-02 -3.00884E-01  8.48603E-04 -1.81851E-01  1.86883E-02 -7.96617E-02
  9.69002E-03 -2.44467E-02  1.67921E-02 -5.68167E-03  5.47165E-02  1.55442E-02  9.90236E-02  7.28564E-02
  1.05845E-01  1.65306E-01  4.71689E-02  2.54833E-01 -6.52065E-02  2.92524E-01 -1.85337E-01  2.53872E-01
 -2.64266E-01  1.56442E-01 -2.83258E-01  4.66925E-02 -2.64244E-01 -3.40240E-02 -2.49887E-01 -7.85918E-02
 -2.68634E-01 -1.16515E-01 -3.11392E-01 -1.88027E-01 -3.37532E-01 -3.09794E-01 -3.05660E-01 -4.58421E-01
 -2.05786E-01 -5.84395E-01 -6.85300E-02 -6.46074E-01  5.56576E-02 -6.38150E-01  1.31594E-01 -5.93267E-01
  1.62399E-01 -5.55768E-01  1.83294E-01 -5.47602E-01  2.31172E-01 -5.52193E-01  3.13242E-01 -5.28407E-01
  3.98654E-01 -4.43854E-01  4.39553E-01 -3.02175E-01  4.05680E-01 -1.43523E-01  3.06406E-01 -1.77762E-02
  1.83638E-01  4.93946E-02  8.10319E-02  7.21260E-02  1.28187E-02  9.01032E-02 -4.42806E-02  1.35496E-01
 -1.30152E-01  2.06304E-01 -2.67461E-01  2.66367E-01 -4.40699E-01  2.72018E-01 -6.04119E-01  2.05185E-01
 -7.12653E-01  8.78704E-02 -7.52563E-01 -3.29370E-02 -7.48807E-01 -1.18509E-01 -7.43780E-01 -1.64726E-01
 -7.63679E-01 -2.01779E-01 -7.98053E-01 -2.67712E-01 -8.07961E-01 -3.76072E-01 -7.56483E-01 -5.02335E-01
 -6.38380E-01 -5.99481E-01 -4.86379E-01 -6.31007E-01 -3.49293E-01 -5.96501E-01 -2.58449E-01 -5.30547E-01
 -2.07668E-01 -4.75959E-01 -1.61735E-01 -4.51673E-01 -8.66585E-02 -4.39578E-01  2.13848E-02 -4.00148E-01
  1.30464E-01 -3.04856E-01  1.94957E-01 -1.60704E-01  1.88602E-01 -8.19760E-03  1.23576E-01  1.05798E-01
  4.12724E-02  1.59879E-01 -1.81809E-02  1.70731E-01 -4.45847E-02  1.77232E-01 -6.29289E-02  2.08328E-01
 -1.11469E-01  2.59153E-01 -2.09426E-01  2.93534E-01 -3.38940E-01  2.71006E-01 -4.55069E-01  1.77842E-01
 -5.16375E-01  3.86488E-02 -5.13103E-01 -1.00249E-01 -4.71839E-01 -2.03067E-01 -4.33344E-01 -2.68160E-01
 -4.20542E-01 -3.25308E-01 -4.20980E-01 -4.09032E-01 -3.97014E-01 -5.28388E-01 -3.15923E-01 -6.56325E-01
 -1.77056E-01 -7.46799E-01 -1.53836E-02 -7.66815E-01  1.21310E-01 -7.19298E-01  2.04468E-01 -6.39655E-01
  2.41997E-01 -5.68795E-01  2.67954E-01 -5.23107E-01  3.12810E-01 -4.84085E-01  3.77073E-01 -4.15279E-01
  4.28402E-01 -2.93548E-01  4.24505E-01 -1.30726E-01  3.44532E-01  3.08566E-02  2.05284E-01  1.45809E-01
  5.00066E-02  1.95506E-01 -8.17094E-02  1.98018E-01 -1.80257E-01  1.90948E-01 -2.68843E-01  2.00437E-01
 -3.80994E-01  2.19992E-01 -5.30098E-01  2.15205E-01 -6.94314E-01  1.50750E-01 -8.28516E-01  1.91485E-02
 -8.94420E-01 -1.50576E-01 -8.86311E-01 -3.10989E-01 -8.33115E-01 -4.27567E-01 -7.75472E-01 -4.99777E-01
 -7.35270E-01 -5.56322E-01 -7.00707E-01 -6.28527E-01 -6.38013E-01 -7.22353E-01 -5.20755E-01 -8.10468E-01
 -3.54258E-01 -8.50535E-01 -1.76448E-01 -8.15953E-01 -3.42284E-02 -7.15861E-01  4.69781E-02 -5.89317E-01
  7.77834E-02 -4.78068E-01  9.28183E-02 -3.98405E-01  1.21549E-01 -3.33188E-01  1.64225E-01 -2.49720E-01
  1.91235E-01 -1.29592E-01  1.66307E-01  1.24543E-02  7.58773E-02  1.35167E-01 -5.77277E-02  1.98134E-01
 -1.89425E-01  1.89343E-01 -2.81066E-01  1.32297E-01 -3.25492E-01  6.74955E-02 -3.47098E-01  2.23805E-02
 -3.78868E-01 -7.52325E-03 -4.33629E-01 -5.21891E-02 -4.91506E-01 -1.40519E-01 -5.13230E-01 -2.74033E-01
 -4.69259E-01 -4.21013E-01 -3.62689E-01 -5.35781E-01 -2.28615E-01 -5.88770E-01 -1.10368E-01 -5.84929E-01
 -3.04807E-02 -5.56815E-01  2.19002E-02 -5.37896E-01  7.79818E-02 -5.36415E-01  1.60919E-01 -5.29642E-01
  2.63872E-01 -4.82750E-01  3.51396E-01 -3.77851E-01  3.83279E-01 -2.31035E-01  3.42943E-01 -8.43105E-02
  2.49034E-01  2.16500E-02  1.41546E-01  7.35990E-02  5.30221E-02  9.12168E-02 -1.34586E-02  1.08215E-01
 -8.30451E-02  1.43648E-01 -1.85877E-01  1.85353E-01 -3.29743E-01  1.98115E-01 -4.89616E-01  1.50376E-01
 -6.22200E-01  3.91962E-02 -6.94699E-01 -1.05478E-01 -7.06227E-01 -2.40569E-01 -6.85890E-01 -3.38830E-01
 -6.69181E-01 -4.05341E-01 -6.70661E-01 -4.69361E-01 -6.73580E-01 -5.58032E-01 -6.44151E-01 -6.72130E-01
 -5.59481E-01 -7.82399E-01 -4.27800E-01 -8.49336E-01 -2.85513E-01 -8.51513E-01 -1.73147E-01 -8.01039E-01
 -1.08204E-01 -7.34507E-01 -7.52634E-02 -6.86267E-01 -4.05595E-02 -6.64184E-01  2.01931E-02 -6.46040E-01
  1.01902E-01 -5.99046E-01  1.73190E-01 -5.07457E-01  2.00046E-01 -3.87182E-01  1.72041E-01 -2.76212E-01
  1.11155E-01 -2.08038E-01  5.64877E-02 -1.88098E-01  3.63153E-02 -1.90988E-01  4.85248E-02 -1.80464E-01
