 $NMID ID='Gln', FMTDAT='(8E13.5)'
 TRAMP=1., VOLUME=1. $END
  3.70430E+00  6.93404E-02  3.31052E+00  1.52477E+00  2.33625E+00  2.62719E+00  1.03219E+00  3.16554E+00
 -2.99391E-01  3.08888E+00 -1.39695E+00  2.49137E+00 -2.09374E+00  1.55318E+00 -2.32257E+00  4.77585E-01
 -2.09201E+00 -5.45331E-01 -1.46588E+00 -1.34703E+00 -5.61842E-01 -1.78330E+00  4.41958E-01 -1.75504E+00
  1.31943E+00 -1.24803E+00  1.84544E+00 -3.66774E-01  1.86969E+00  6.70721E-01  1.37866E+00  1.59088E+00
  5.07717E-01  2.15523E+00 -5.08504E-01  2.23998E+00 -1.42321E+00  1.86456E+00 -2.05664E+00  1.15955E+00
 -2.33051E+00  2.99501E-01 -2.25233E+00 -5.57590E-01 -1.87520E+00 -1.29523E+00 -1.26818E+00 -1.82966E+00
 -5.14286E-01 -2.09370E+00  2.75293E-01 -2.04027E+00  9.59254E-01 -1.66964E+00  1.39588E+00 -1.05811E+00
  1.49655E+00 -3.57151E-01  1.27095E+00  2.50607E-01  8.30724E-01  6.20838E-01  3.43014E-01  7.03658E-01
 -4.20734E-02  5.52956E-01 -2.48218E-01  2.84750E-01 -2.83292E-01  1.27191E-02 -2.04346E-01 -1.98491E-01
 -6.73978E-02 -3.37562E-01  1.01641E-01 -4.15619E-01  2.98902E-01 -4.31398E-01  5.11811E-01 -3.62547E-01
  6.97343E-01 -1.88961E-01  7.92150E-01  7.38020E-02  7.50122E-01  3.62569E-01  5.78677E-01  5.91485E-01
  3.43262E-01  6.99838E-01  1.32044E-01  6.88958E-01  2.84699E-03  6.19973E-01 -5.09132E-02  5.71604E-01
 -9.08498E-02  5.86354E-01 -1.86968E-01  6.42367E-01 -3.66429E-01  6.70148E-01 -5.93182E-01  6.01410E-01
 -7.91158E-01  4.15091E-01 -8.92439E-01  1.49095E-01 -8.75196E-01 -1.27526E-01 -7.65962E-01 -3.58429E-01
 -6.08993E-01 -5.26384E-01 -4.30161E-01 -6.44515E-01 -2.25393E-01 -7.23438E-01  1.74731E-02 -7.44706E-01
  2.82716E-01 -6.65821E-01  5.09037E-01 -4.56430E-01  6.09998E-01 -1.38874E-01  5.23399E-01  2.00230E-01
  2.56751E-01  4.41614E-01 -1.04015E-01  4.91521E-01 -4.31253E-01  3.29839E-01 -6.15420E-01  1.76704E-02
 -6.10585E-01 -3.38599E-01 -4.39742E-01 -6.40729E-01 -1.63126E-01 -8.34296E-01  1.62379E-01 -9.07740E-01
  5.02131E-01 -8.64811E-01  8.31085E-01 -6.99610E-01  1.10708E+00 -3.98571E-01  1.25985E+00  3.08679E-02
  1.21336E+00  5.29842E-01  9.31265E-01  9.86020E-01  4.54085E-01  1.27093E+00 -1.01694E-01  1.29826E+00
 -5.87805E-01  1.06703E+00 -8.87156E-01  6.61789E-01 -9.58048E-01  2.09558E-01 -8.35313E-01 -1.78061E-01
 -5.93652E-01 -4.42101E-01 -3.02726E-01 -5.74493E-01 -5.05994E-03 -5.88381E-01  2.73435E-01 -4.90144E-01
  4.97609E-01 -2.77560E-01  6.11082E-01  3.58270E-02  5.55064E-01  3.93989E-01  3.08228E-01  6.97799E-01
 -8.21866E-02  8.40171E-01 -5.05328E-01  7.58586E-01 -8.30886E-01  4.70856E-01 -9.67556E-01  6.89491E-02
 -8.99912E-01 -3.26544E-01 -6.82190E-01 -6.22351E-01 -3.96860E-01 -7.84235E-01 -1.08700E-01 -8.28601E-01
  1.55050E-01 -7.87134E-01  3.90044E-01 -6.75266E-01  5.84264E-01 -4.88898E-01  7.01353E-01 -2.29056E-01
  6.94966E-01  6.94798E-02  5.44833E-01  3.33716E-01  2.85818E-01  4.81758E-01  4.07580E-03  4.68397E-01
 -2.02104E-01  3.14846E-01 -2.72728E-01  9.98632E-02 -2.14303E-01 -8.36411E-02 -8.73542E-02 -1.77932E-01
  3.67339E-02 -1.83284E-01  1.18529E-01 -1.41459E-01  1.63989E-01 -9.53091E-02  2.02482E-01 -5.61111E-02
  2.49930E-01 -2.34253E-03  2.87718E-01  9.17016E-02  2.74499E-01  2.22407E-01  1.81464E-01  3.46986E-01
  2.26123E-02  4.07101E-01 -1.45315E-01  3.69240E-01 -2.55661E-01  2.51216E-01 -2.74543E-01  1.13592E-01
 -2.22214E-01  2.08033E-02 -1.57060E-01 -4.97849E-04 -1.33619E-01  2.40603E-02 -1.65061E-01  3.92884E-02
 -2.17068E-01  3.07590E-03 -2.36517E-01 -8.26463E-02 -1.92731E-01 -1.74917E-01 -1.00246E-01 -2.23281E-01
 -6.70311E-03 -2.07699E-01  4.39004E-02 -1.52040E-01  4.38713E-02 -1.03508E-01  2.52868E-02 -9.45846E-02
  3.19013E-02 -1.17354E-01  8.15892E-02 -1.30414E-01  1.48891E-01 -9.33546E-02  1.82004E-01 -2.30387E-03
  1.42182E-01  1.01294E-01  3.60238E-02  1.56586E-01 -8.41411E-02  1.25626E-01 -1.53024E-01  2.11483E-02
 -1.34965E-01 -1.00675E-01 -4.57310E-02 -1.77242E-01  6.15640E-02 -1.79300E-01  1.34976E-01 -1.25041E-01
  1.57644E-01 -5.97500E-02  1.52476E-01 -1.80574E-02  1.55791E-01  1.65898E-03  1.81884E-01  3.13205E-02
  2.07094E-01  1.01059E-01  1.86609E-01  2.06894E-01  9.15676E-02  3.04569E-01 -6.21760E-02  3.36075E-01
 -2.16731E-01  2.70190E-01 -3.06039E-01  1.27062E-01 -2.97257E-01 -3.18983E-02 -2.10019E-01 -1.42135E-01
 -1.00154E-01 -1.74881E-01 -2.04144E-02 -1.49436E-01  1.27041E-02 -1.11405E-01  2.24340E-02 -9.47648E-02
  4.47788E-02 -9.69954E-02  9.34382E-02 -8.57116E-02  1.44620E-01 -3.05932E-02  1.53970E-01  6.51884E-02
  9.27482E-02  1.59537E-01 -2.48754E-02  1.97545E-01 -1.45294E-01  1.50321E-01 -2.08524E-01  3.75026E-02
 -1.87247E-01 -8.38917E-02 -1.03454E-01 -1.56652E-01 -1.07560E-02 -1.59705E-01  4.41487E-02 -1.17480E-01
  5.22584E-02 -7.65036E-02  4.30264E-02 -6.77781E-02  5.57991E-02 -8.37261E-02  1.04741E-01 -8.68141E-02
  1.64658E-01 -4.25790E-02  1.88845E-01  4.89210E-02  1.45423E-01  1.47993E-01  4.42669E-02  2.01185E-01
 -6.64317E-02  1.79106E-01 -1.32063E-01  9.78375E-02 -1.28541E-01  7.74072E-03 -7.69930E-02 -4.21095E-02
 -2.56075E-02 -3.74459E-02 -1.26540E-02 -5.57492E-03 -3.86245E-02  9.02360E-03 -6.82523E-02 -1.88026E-02
 -6.03539E-02 -7.42708E-02 -2.32942E-03 -1.13644E-01  7.72939E-02 -9.83606E-02  1.28145E-01 -2.62257E-02
  1.14772E-01  6.42784E-02  4.32180E-02  1.20177E-01 -4.26637E-02  1.11274E-01 -9.24393E-02  5.07396E-02
 -8.45148E-02 -1.61588E-02 -3.93947E-02 -4.63546E-02 -1.32005E-03 -3.03078E-02 -2.73626E-03  3.13580E-03
 -3.88714E-02  1.15727E-02 -7.18019E-02 -2.57984E-02 -6.08116E-02 -8.98378E-02  4.24351E-03 -1.34249E-01
  9.22383E-02 -1.20069E-01  1.51320E-01 -4.58569E-02  1.45628E-01  4.93411E-02  8.08561E-02  1.12746E-01
 -3.35741E-04  1.14523E-01 -4.94615E-02  6.72268E-02 -4.64812E-02  1.39284E-02 -1.17386E-02 -5.45458E-03
  1.27986E-02  1.60845E-02 -1.91369E-03  4.92104E-02 -4.83649E-02  5.33036E-02 -8.79433E-02  1.04237E-02
 -8.13200E-02 -5.81707E-02 -2.04866E-02 -1.05990E-01  6.22528E-02 -9.55588E-02  1.15685E-01 -2.71855E-02
  1.05853E-01  5.95828E-02  4.01402E-02  1.13200E-01 -3.85825E-02  1.05945E-01 -8.31848E-02  5.18845E-02
 -7.54485E-02 -5.95256E-03 -3.66028E-02 -2.89427E-02 -7.97300E-03 -1.13256E-02 -1.71319E-02  1.76204E-02
 -5.57242E-02  1.88328E-02 -8.59950E-02 -2.36443E-02 -7.09944E-02 -8.77078E-02 -5.23965E-03 -1.28049E-01
  7.78979E-02 -1.09909E-01  1.28277E-01 -3.62890E-02  1.14426E-01  5.21149E-02  4.60392E-02  1.04581E-01
 -3.31757E-02  9.52858E-02 -7.68249E-02  3.97603E-02 -6.79323E-02 -1.88676E-02 -2.81377E-02 -4.29456E-02
  2.16743E-03 -2.75045E-02 -3.04779E-03 -1.27425E-03 -3.47092E-02 -1.33733E-03 -5.61666E-02 -4.13712E-02
 -3.31378E-02 -9.82658E-02  3.70463E-02 -1.27826E-01  1.19656E-01 -9.80022E-02  1.65307E-01 -1.45581E-02
  1.44689E-01  8.04791E-02  6.95180E-02  1.36883E-01 -1.58157E-02  1.30256E-01 -6.56178E-02  7.70659E-02
 -6.39105E-02  2.00386E-02 -3.23422E-02 -4.52730E-03 -9.87862E-03  7.30734E-03 -2.04745E-02  2.72546E-02
 -5.37661E-02  2.02293E-02 -7.35951E-02 -2.49984E-02 -4.77248E-02 -8.39207E-02  2.42239E-02 -1.12783E-01
  1.06421E-01 -8.13062E-02  1.50068E-01  3.06192E-03  1.27331E-01  9.79469E-02  5.08192E-02  1.54242E-01
 -3.57776E-02  1.49036E-01 -8.88121E-02  9.91274E-02 -9.43183E-02  4.56309E-02 -7.43777E-02  2.18356E-02
 -6.61857E-02  2.88147E-02 -9.04286E-02  3.70361E-02 -1.33466E-01  1.22497E-02 -1.57069E-01 -5.45928E-02
 -1.28321E-01 -1.36674E-01 -4.68022E-02 -1.88506E-01  5.18890E-02 -1.78347E-01  1.19398E-01 -1.11546E-01
  1.27546E-01 -2.72155E-02  8.65259E-02  2.93265E-02  3.50448E-02  3.77601E-02  1.02333E-02  1.44487E-02
  2.02207E-02 -3.68313E-03  4.00473E-02  9.68904E-03  3.37061E-02  4.81453E-02 -1.47946E-02  7.64732E-02
 -8.53420E-02  5.78839E-02 -1.33288E-01 -1.60844E-02 -1.20441E-01 -1.15726E-01 -4.25505E-02 -1.91128E-01
  6.70597E-02 -2.04846E-01  1.60167E-01 -1.55329E-01  2.05531E-01 -7.42606E-02  2.06323E-01 -7.61727E-04
  1.90815E-01  4.73502E-02  1.84574E-01  8.32364E-02  1.86475E-01  1.34621E-01  1.67774E-01  2.14551E-01
  9.56374E-02  3.02744E-01 -3.65730E-02  3.53171E-01 -1.95699E-01  3.23681E-01 -3.23358E-01  2.06536E-01
 -3.69397E-01  3.75060E-02 -3.20957E-01 -1.23412E-01 -2.07143E-01 -2.26035E-01 -7.72308E-02 -2.54912E-01
  3.05579E-02 -2.28754E-01  1.06750E-01 -1.77446E-01  1.63249E-01 -1.16189E-01  2.09227E-01 -3.75349E-02
  2.31627E-01  7.28374E-02  1.97866E-01  2.10099E-01  8.06259E-02  3.36432E-01 -1.13438E-01  3.93278E-01
 -3.33770E-01  3.33887E-01 -5.04762E-01  1.54393E-01 -5.62753E-01 -9.85371E-02 -4.87309E-01 -3.49437E-01
 -3.06947E-01 -5.30753E-01 -7.76083E-02 -6.10456E-01  1.49057E-01 -5.94315E-01  3.45033E-01 -5.05807E-01
  5.01772E-01 -3.62554E-01  6.10572E-01 -1.68896E-01  6.47667E-01  7.03512E-02  5.79951E-01  3.28314E-01
  3.89898E-01  5.47762E-01  1.01391E-01  6.58061E-01 -2.15151E-01  6.10024E-01 -4.66532E-01  4.06420E-01
 -5.77298E-01  1.06916E-01 -5.22568E-01 -1.97197E-01 -3.33649E-01 -4.23022E-01 -7.53965E-02 -5.26315E-01
  1.87222E-01 -5.05836E-01  4.10865E-01 -3.84811E-01  5.72829E-01 -1.88011E-01  6.55032E-01  6.66309E-02
  6.32105E-01  3.57218E-01  4.78193E-01  6.40785E-01  1.90238E-01  8.49585E-01 -1.90208E-01  9.10997E-01
 -5.76782E-01  7.82555E-01 -8.66069E-01  4.79916E-01 -9.79855E-01  7.77981E-02 -8.97288E-01 -3.19140E-01
 -6.58254E-01 -6.18811E-01 -3.38111E-01 -7.72844E-01 -1.20045E-02 -7.80684E-01  2.68592E-01 -6.70242E-01
  4.76282E-01 -4.73774E-01  5.92795E-01 -2.17741E-01  5.97341E-01  6.88193E-02  4.72230E-01  3.39813E-01
  2.23365E-01  5.30156E-01 -1.01643E-01  5.75494E-01 -4.16374E-01  4.44684E-01 -6.24388E-01  1.63655E-01
 -6.59780E-01 -1.87706E-01 -5.15556E-01 -5.06923E-01 -2.42692E-01 -7.11062E-01  7.82994E-02 -7.65227E-01
  3.74155E-01 -6.82976E-01  6.01449E-01 -5.03594E-01  7.44887E-01 -2.65681E-01  7.99759E-01  4.12011E-03
  7.57577E-01  2.82886E-01  6.08921E-01  5.36126E-01  3.61370E-01  7.13772E-01  5.59623E-02  7.66404E-01
 -2.35398E-01  6.73219E-01 -4.35764E-01  4.61664E-01 -4.98416E-01  2.02103E-01 -4.29103E-01 -2.24696E-02
