 $NMID ID='Glu', FMTDAT='(8E13.5)'
 TRAMP=1., VOLUME=1. $END
  3.98117E+00  7.48989E-02  3.54059E+00  1.68829E+00  2.44091E+00  2.90009E+00  9.69323E-01  3.46486E+00
 -5.22752E-01  3.32066E+00 -1.72545E+00  2.57727E+00 -2.43781E+00  1.45319E+00 -2.58214E+00  2.02854E-01
 -2.18375E+00 -9.33247E-01 -1.34673E+00 -1.75034E+00 -2.42790E-01 -2.09225E+00  8.95731E-01 -1.87612E+00
  1.80232E+00 -1.12915E+00  2.23596E+00 -1.28164E-02  2.05983E+00  1.19593E+00  1.30105E+00  2.17705E+00
  1.53855E-01  2.66972E+00 -1.08350E+00  2.55802E+00 -2.11066E+00  1.89850E+00 -2.71701E+00  8.80198E-01
 -2.82365E+00 -2.55437E-01 -2.46836E+00 -1.28999E+00 -1.75907E+00 -2.06655E+00 -8.32312E-01 -2.49001E+00
  1.63298E-01 -2.51349E+00  1.06701E+00 -2.13742E+00  1.71441E+00 -1.42660E+00  1.97170E+00 -5.25127E-01
  1.78720E+00  3.58618E-01  1.22831E+00  1.00749E+00  4.73087E-01  1.27163E+00 -2.49986E-01  1.12493E+00
 -7.46536E-01  6.68805E-01 -9.21273E-01  8.03817E-02 -7.91198E-01 -4.64348E-01 -4.47778E-01 -8.49269E-01
  8.20191E-04 -1.03177E+00  4.69303E-01 -1.01686E+00  8.98424E-01 -8.22345E-01  1.23407E+00 -4.65544E-01
  1.41222E+00  2.13688E-02  1.37180E+00  5.67625E-01  1.09074E+00  1.06145E+00  6.17285E-01  1.38278E+00
  6.71182E-02  1.45606E+00 -4.20352E-01  1.28874E+00 -7.43108E-01  9.67300E-01 -8.77167E-01  6.10588E-01
 -8.71531E-01  3.09604E-01 -8.03174E-01  9.19440E-02 -7.24670E-01 -6.88554E-02 -6.40116E-01 -2.10927E-01
 -5.22513E-01 -3.42786E-01 -3.54705E-01 -4.33942E-01 -1.59522E-01 -4.42267E-01  5.25261E-03 -3.54460E-01
  8.32454E-02 -2.06341E-01  5.87082E-02 -6.59233E-02 -3.22322E-02  8.59402E-03 -1.27489E-01  4.08654E-03
 -1.82536E-01 -4.58364E-02 -1.98177E-01 -9.38031E-02 -2.11136E-01 -1.20458E-01 -2.54673E-01 -1.51978E-01
 -3.20047E-01 -2.38442E-01 -3.50003E-01 -4.08176E-01 -2.72069E-01 -6.32414E-01 -4.94914E-02 -8.28282E-01
  2.86238E-01 -9.00708E-01  6.44907E-01 -7.95702E-01  9.23053E-01 -5.29285E-01  1.05439E+00 -1.74136E-01
  1.03235E+00  1.83878E-01  8.93647E-01  4.87016E-01  6.80897E-01  7.17142E-01  4.15690E-01  8.74691E-01
  1.02866E-01  9.48176E-01 -2.40540E-01  9.04049E-01 -5.59678E-01  7.09238E-01 -7.66765E-01  3.70750E-01
 -7.80584E-01 -3.99276E-02 -5.76796E-01 -4.01800E-01 -2.13938E-01 -5.95407E-01  1.85579E-01 -5.60039E-01
  4.90072E-01 -3.21295E-01  6.15471E-01  2.73307E-02  5.50839E-01  3.74545E-01  3.41907E-01  6.39180E-01
  5.10080E-02  7.87396E-01 -2.74502E-01  8.15869E-01 -6.04407E-01  7.23216E-01 -9.03789E-01  4.98435E-01
 -1.11329E+00  1.38278E-01 -1.15642E+00 -3.21168E-01 -9.76625E-01 -7.88525E-01 -5.80688E-01 -1.13789E+00
 -5.57321E-02 -1.26079E+00  4.57536E-01 -1.11920E+00  8.23288E-01 -7.65582E-01  9.66578E-01 -3.16684E-01
  8.94374E-01  1.02051E-01  6.73127E-01  4.06546E-01  3.83245E-01  5.70405E-01  8.34724E-02  6.05309E-01
 -1.93744E-01  5.28622E-01 -4.21349E-01  3.47369E-01 -5.57006E-01  7.07373E-02 -5.47072E-01 -2.62793E-01
 -3.57876E-01 -5.72068E-01 -1.21517E-02 -7.53144E-01  3.99834E-01 -7.26329E-01  7.49365E-01 -4.81371E-01
  9.25232E-01 -8.95146E-02  8.83168E-01  3.27989E-01  6.58672E-01  6.56237E-01  3.37669E-01  8.33074E-01
  7.33511E-03  8.59199E-01 -2.79548E-01  7.72063E-01 -5.06582E-01  6.08380E-01 -6.68834E-01  3.84931E-01
 -7.47632E-01  1.09661E-01 -7.09763E-01 -1.91004E-01 -5.34021E-01 -4.56656E-01 -2.43833E-01 -6.08395E-01
  8.30345E-02 -5.89494E-01  3.41328E-01 -4.03723E-01  4.48301E-01 -1.22433E-01  3.85069E-01  1.47909E-01
  2.02017E-01  3.18391E-01 -1.46683E-02  3.56961E-01 -1.91806E-01  2.90660E-01 -3.00659E-01  1.73476E-01
 -3.52860E-01  4.60869E-02 -3.69611E-01 -8.29303E-02 -3.51974E-01 -2.23495E-01 -2.77120E-01 -3.73142E-01
 -1.23293E-01 -4.97388E-01  9.77419E-02 -5.40560E-01  3.29174E-01 -4.61598E-01  4.91732E-01 -2.68387E-01
  5.27404E-01 -2.33017E-02  4.34142E-01  1.87150E-01  2.66609E-01  2.99380E-01  1.01898E-01  3.04687E-01
 -5.94462E-03  2.45013E-01 -5.13033E-02  1.77436E-01 -6.65525E-02  1.34337E-01 -8.66367E-02  1.07917E-01
 -1.17323E-01  6.82510E-02 -1.31562E-01 -1.74414E-03 -9.57644E-02 -8.34735E-02 -4.20979E-03 -1.31005E-01
  1.06758E-01 -1.04893E-01  1.77654E-01 -5.43651E-03  1.65177E-01  1.21052E-01  7.29823E-02  2.09434E-01
 -4.93866E-02  2.17576E-01 -1.39361E-01  1.52673E-01 -1.62406E-01  6.30928E-02 -1.31696E-01  2.17499E-03
 -9.28938E-02 -9.07404E-03 -8.64837E-02  6.86720E-03 -1.16501E-01  6.23608E-03 -1.49016E-01 -3.83908E-02
 -1.40782E-01 -1.14281E-01 -7.54849E-02 -1.76818E-01  2.06345E-02 -1.83418E-01  9.61005E-02 -1.26975E-01
  1.11547E-01 -4.29960E-02  6.87799E-02  1.54011E-02  9.38145E-03  1.60269E-02 -1.63248E-02 -2.93039E-02
  1.32989E-02 -7.45643E-02  7.54939E-02 -7.48125E-02  1.20852E-01 -2.04162E-02  1.11059E-01  5.55144E-02
  4.81508E-02  1.01965E-01 -2.66746E-02  8.82958E-02 -6.36549E-02  2.71053E-02 -4.12840E-02 -3.54034E-02
  1.83524E-02 -5.40652E-02  6.70506E-02 -1.81220E-02  6.72595E-02  4.17939E-02  2.01627E-02  7.80456E-02
 -3.61308E-02  6.29436E-02 -5.66863E-02  1.00388E-02 -2.50309E-02 -3.64468E-02  3.33797E-02 -3.59760E-02
  6.99193E-02  1.63533E-02  4.96884E-02  8.46832E-02 -2.13547E-02  1.18227E-01 -9.96277E-02  8.87594E-02
 -1.35242E-01  1.16298E-02 -1.07985E-01 -6.54356E-02 -4.11042E-02 -9.72408E-02  1.71608E-02 -7.34893E-02
  3.00732E-02 -2.44800E-02 -7.36685E-04  3.72733E-03 -3.81602E-02 -1.45259E-02 -3.96954E-02 -6.46107E-02
  8.45092E-03 -1.03065E-01  7.93788E-02 -9.15532E-02  1.24890E-01 -2.73847E-02  1.11648E-01  5.27787E-02
  4.67258E-02  9.90510E-02 -2.68644E-02  8.47300E-02 -6.13986E-02  2.56235E-02 -3.90063E-02 -3.21730E-02
  1.62979E-02 -4.67365E-02  5.79120E-02 -1.10222E-02  5.24317E-02  4.31802E-02  4.76192E-03  7.07020E-02
 -4.63484E-02  4.82848E-02 -5.87414E-02 -7.20644E-03 -1.99595E-02 -5.14838E-02  4.22459E-02 -4.67830E-02
  8.01058E-02  8.74250E-03  6.15436E-02  7.85390E-02 -5.53605E-03  1.14087E-01 -7.86947E-02  9.04159E-02
 -1.12016E-01  2.40519E-02 -8.93883E-02 -3.99333E-02 -3.50826E-02 -6.17838E-02  6.02140E-03 -3.61753E-02
  3.26859E-03  5.28824E-03 -3.64511E-02  1.97700E-02 -7.45616E-02 -1.27238E-02 -7.12548E-02 -7.29885E-02
 -1.72407E-02 -1.16558E-01  5.75156E-02 -1.07456E-01  1.04952E-01 -4.61963E-02  9.41993E-02  2.92769E-02
  3.45101E-02  7.06094E-02 -3.13816E-02  5.38777E-02 -5.84493E-02 -3.73866E-03 -3.17111E-02 -5.76946E-02
  2.43550E-02 -6.95825E-02  6.59393E-02 -3.50390E-02  6.38834E-02  1.47955E-02  2.55463E-02  3.88964E-02
 -1.19715E-02  1.91271E-02 -1.18350E-02 -2.50809E-02  3.24423E-02 -5.14970E-02  9.00962E-02 -2.81483E-02
  1.15055E-01  4.05418E-02  8.04448E-02  1.14665E-01 -2.87583E-04  1.46566E-01 -8.16624E-02  1.14940E-01
 -1.17877E-01  3.99961E-02 -9.44718E-02 -3.14546E-02 -3.66710E-02 -5.96201E-02  1.12240E-02 -3.89277E-02
  1.93340E-02  1.15128E-03 -6.85560E-03  2.14561E-02 -3.36180E-02  4.70837E-03 -2.81020E-02 -3.11044E-02
  1.34374E-02 -4.77816E-02  6.04546E-02 -1.87168E-02  7.04709E-02  4.72275E-02  2.22971E-02  1.08649E-01
 -6.51484E-02  1.19968E-01 -1.43160E-01  6.44867E-02 -1.65690E-01 -3.23925E-02 -1.20355E-01 -1.19726E-01
 -3.55003E-02 -1.55234E-01  4.12826E-02 -1.32132E-01  7.67195E-02 -7.94594E-02  7.24528E-02 -3.68469E-02
  5.80387E-02 -2.37199E-02  6.29261E-02 -2.65843E-02  8.99412E-02 -1.37020E-02  1.11367E-01  3.48572E-02
  9.10730E-02  1.05810E-01  1.58185E-02  1.57469E-01 -8.87074E-02  1.48304E-01 -1.70431E-01  6.83959E-02
 -1.83978E-01 -4.98594E-02 -1.20681E-01 -1.50401E-01 -1.38799E-02 -1.88518E-01  8.39883E-02 -1.57295E-01
  1.35492E-01 -8.71688E-02  1.38772E-01 -2.03237E-02  1.20677E-01  1.99380E-02  1.09549E-01  4.18071E-02
  1.09842E-01  7.10221E-02  9.87601E-02  1.22574E-01  4.75395E-02  1.81388E-01 -4.95101E-02  2.08343E-01
 -1.61674E-01  1.68285E-01 -2.36161E-01  5.92553E-02 -2.31137E-01 -7.96119E-02 -1.43995E-01 -1.88740E-01
 -1.43113E-02 -2.23501E-01  1.00794E-01 -1.79622E-01  1.61245E-01 -9.12513E-02  1.64159E-01 -4.37978E-03
  1.36488E-01  5.39850E-02  1.07846E-01  8.83380E-02  8.55666E-02  1.21084E-01  5.14677E-02  1.65296E-01
 -1.77318E-02  2.06612E-01 -1.23183E-01  2.09685E-01 -2.32458E-01  1.45181E-01 -2.94683E-01  1.68304E-02
 -2.72691E-01 -1.32918E-01 -1.69126E-01 -2.44625E-01 -2.71511E-02 -2.76597E-01  9.52879E-02 -2.28410E-01
  1.59593E-01 -1.37057E-01  1.65184E-01 -4.94843E-02  1.40768E-01  7.84383E-03  1.16680E-01  4.04225E-02
  1.00390E-01  7.13657E-02  7.39009E-02  1.14212E-01  1.42735E-02  1.55386E-01 -7.97546E-02  1.60953E-01
 -1.77056E-01  1.03108E-01 -2.29284E-01 -1.39183E-02 -2.01979E-01 -1.49147E-01 -9.90376E-02 -2.46418E-01
  3.77173E-02 -2.67660E-01  1.54025E-01 -2.14396E-01  2.15597E-01 -1.22537E-01  2.24519E-01 -3.51448E-02
  2.08995E-01  2.62527E-02  1.95754E-01  7.08459E-02  1.87066E-01  1.22615E-01  1.60144E-01  1.92958E-01
  8.90859E-02  2.64156E-01 -2.81426E-02  2.97465E-01 -1.59349E-01  2.60499E-01 -2.53656E-01  1.53433E-01
 -2.72578E-01  1.39147E-02 -2.14323E-01 -1.03818E-01 -1.13773E-01 -1.61021E-01 -1.84804E-02 -1.54919E-01
  4.14463E-02 -1.13635E-01  6.77044E-02 -7.07302E-02  8.29731E-02 -3.94934E-02  1.04788E-01 -6.62501E-03
  1.25538E-01  5.04288E-02  1.15043E-01  1.36782E-01  4.45025E-02  2.25879E-01 -8.62522E-02  2.70327E-01
 -2.39521E-01  2.31347E-01 -3.56885E-01  1.05951E-01 -3.91683E-01 -6.79503E-02 -3.34420E-01 -2.32458E-01
 -2.13936E-01 -3.41830E-01 -7.49793E-02 -3.83445E-01  5.03000E-02 -3.74232E-01  1.55941E-01 -3.37868E-01
  2.52315E-01 -2.82174E-01  3.42855E-01 -1.95050E-01  4.07931E-01 -6.20161E-02  4.10791E-01  1.09205E-01
  3.23023E-01  2.78066E-01  1.51042E-01  3.85643E-01 -5.70610E-02  3.86410E-01 -2.31473E-01  2.76033E-01
 -3.15395E-01  9.58047E-02 -2.91874E-01 -8.94523E-02 -1.85898E-01 -2.24748E-01 -4.27128E-02 -2.87260E-01
  1.00223E-01 -2.84623E-01  2.27267E-01 -2.34512E-01  3.36624E-01 -1.44294E-01  4.20308E-01 -7.99913E-03
  4.51621E-01  1.77176E-01  3.93601E-01  3.89362E-01  2.24798E-01  5.75408E-01 -3.62182E-02  6.68738E-01
 -3.27357E-01  6.22734E-01 -5.66262E-01  4.38082E-01 -6.87253E-01  1.65418E-01 -6.69083E-01 -1.18878E-01
