 $NMID ID='Gly', FMTDAT='(8E13.5)'
 TRAMP=1., VOLUME=1. $END
  2.10000E+00 -3.33067E-16  2.01362E+00  5.01071E-01  1.79222E+00  9.22272E-01  1.50650E+00  1.23139E+00
  1.21745E+00  1.45360E+00  9.37475E-01  1.64063E+00  6.30679E-01  1.82175E+00  2.51486E-01  1.97413E+00
 -2.08198E-01  2.03528E+00 -6.99569E-01  1.94825E+00 -1.14045E+00  1.70535E+00 -1.46445E+00  1.35735E+00
 -1.65911E+00  9.81173E-01 -1.76475E+00  6.30216E-01 -1.83546E+00  3.04697E-01 -1.89232E+00 -3.62565E-02
 -1.90433E+00 -4.30506E-01 -1.81171E+00 -8.70866E-01 -1.57366E+00 -1.29751E+00 -1.20437E+00 -1.63105E+00
 -7.69868E-01 -1.82172E+00 -3.47686E-01 -1.87787E+00  2.02539E-02 -1.85274E+00  3.46609E-01 -1.79994E+00
  6.75666E-01 -1.73156E+00  1.03658E+00 -1.61057E+00  1.40883E+00 -1.38325E+00  1.72654E+00 -1.02656E+00
  1.91878E+00 -5.74507E-01  1.95571E+00 -1.03054E-01  1.86594E+00  3.15305E-01  1.71240E+00  6.53419E-01
  1.54506E+00  9.36769E-01  1.36639E+00  1.21134E+00  1.13544E+00  1.49708E+00  8.07079E-01  1.76269E+00
  3.76227E-01  1.94123E+00 -1.06837E-01  1.97492E+00 -5.62105E-01  1.85552E+00 -9.27472E-01  1.62982E+00
 -1.19288E+00  1.36627E+00 -1.39577E+00  1.10799E+00 -1.58192E+00  8.47479E-01 -1.76197E+00  5.41794E-01
 -1.89671E+00  1.56094E-01 -1.92273E+00 -2.97902E-01 -1.79886E+00 -7.58190E-01 -1.53840E+00 -1.14677E+00
 -1.20275E+00 -1.41648E+00 -8.61180E-01 -1.57548E+00 -5.46908E-01 -1.67141E+00 -2.42452E-01 -1.74782E+00
  9.53651E-02 -1.80617E+00  4.90252E-01 -1.80232E+00  9.15918E-01 -1.68029E+00  1.30379E+00 -1.41745E+00
  1.58359E+00 -1.04692E+00  1.72645E+00 -6.40053E-01  1.75854E+00 -2.61964E-01  1.73512E+00  6.66051E-02
  1.69533E+00  3.72744E-01  1.63181E+00  6.98240E-01  1.49834E+00  1.05558E+00  1.24930E+00  1.40691E+00
  8.81033E-01  1.68241E+00  4.43294E-01  1.82440E+00  1.19596E-02  1.82425E+00 -3.56779E-01  1.72449E+00
 -6.56571E-01  1.58473E+00 -9.23217E-01  1.43748E+00 -1.19562E+00  1.26713E+00 -1.47555E+00  1.02784E+00
 -1.71710E+00  6.86336E-01 -1.85420E+00  2.56884E-01 -1.84547E+00 -1.98502E-01 -1.70286E+00 -6.05130E-01
 -1.48234E+00 -9.19908E-01 -1.24404E+00 -1.15188E+00 -1.01174E+00 -1.34411E+00 -7.62292E-01 -1.53121E+00
 -4.52351E-01 -1.70519E+00 -6.18658E-02 -1.81572E+00  3.79257E-01 -1.80481E+00  8.01852E-01 -1.64971E+00
  1.13794E+00 -1.38159E+00  1.36078E+00 -1.06592E+00  1.49474E+00 -7.59214E-01  1.58813E+00 -4.74753E-01
  1.66992E+00 -1.82686E-01  1.72362E+00  1.56099E-01  1.69794E+00  5.48551E-01  1.54639E+00  9.52368E-01
  1.26557E+00  1.29664E+00  9.03127E-01  1.52499E+00  5.29191E-01  1.62904E+00  1.92662E-01  1.64728E+00
 -1.05032E-01  1.63069E+00 -3.99343E-01  1.60140E+00 -7.23866E-01  1.53578E+00 -1.07336E+00  1.38470E+00
 -1.39701E+00  1.11542E+00 -1.62739E+00  7.43081E-01 -1.72361E+00  3.27819E-01 -1.69623E+00 -6.07209E-02
 -1.59556E+00 -3.84927E-01 -1.47231E+00 -6.55922E-01 -1.34059E+00 -9.13409E-01 -1.17110E+00 -1.18453E+00
 -9.19433E-01 -1.45340E+00 -5.67639E-01 -1.66481E+00 -1.47272E-01 -1.75949E+00  2.73908E-01 -1.71457E+00
  6.31898E-01 -1.55870E+00  9.03301E-01 -1.35068E+00  1.11172E+00 -1.13776E+00  1.29948E+00 -9.25091E-01
  1.48659E+00 -6.79166E-01  1.64852E+00 -3.62206E-01  1.72966E+00  2.90441E-02  1.68268E+00  4.49888E-01
  1.50377E+00  8.30214E-01  1.23738E+00  1.11636E+00  9.46760E-01  1.30109E+00  6.72468E-01  1.41955E+00
  4.10047E-01  1.51476E+00  1.23213E-01  1.59919E+00 -2.17903E-01  1.64178E+00 -6.02983E-01  1.59022E+00
 -9.78219E-01  1.41166E+00 -1.27642E+00  1.12090E+00 -1.45810E+00  7.74708E-01 -1.53297E+00  4.36240E-01
 -1.54587E+00  1.36428E-01 -1.53837E+00 -1.39061E-01 -1.51514E+00 -4.27878E-01 -1.44079E+00 -7.51305E-01
 -1.26929E+00 -1.08738E+00 -9.83615E-01 -1.37759E+00 -6.15309E-01 -1.56250E+00 -2.28983E-01 -1.61949E+00
  1.16858E-01 -1.57468E+00  4.03391E-01 -1.47998E+00  6.54568E-01 -1.37317E+00  9.07995E-01 -1.25105E+00
  1.17619E+00 -1.07597E+00  1.42804E+00 -8.10428E-01  1.60477E+00 -4.53243E-01  1.65865E+00 -4.96120E-02
  1.58531E+00  3.32954E-01  1.42542E+00  6.44932E-01  1.23469E+00  8.81317E-01  1.04476E+00  1.07485E+00
  8.44650E-01  1.26163E+00  5.96309E-01  1.44567E+00  2.72158E-01  1.58947E+00 -1.14247E-01  1.63805E+00
 -5.08051E-01  1.55831E+00 -8.43927E-01  1.36398E+00 -1.08500E+00  1.10737E+00 -1.24085E+00  8.44176E-01
 -1.35155E+00  5.97736E-01 -1.45023E+00  3.49580E-01 -1.53287E+00  6.28791E-02 -1.55844E+00 -2.79420E-01
 -1.47921E+00 -6.51141E-01 -1.27831E+00 -9.92262E-01 -9.86023E-01 -1.24443E+00 -6.62427E-01 -1.38612E+00
 -3.59284E-01 -1.44123E+00 -8.97717E-02 -1.45507E+00  1.71505E-01 -1.45626E+00  4.58779E-01 -1.43353E+00
  7.78706E-01 -1.34497E+00  1.09530E+00 -1.15267E+00  1.34801E+00 -8.56260E-01  1.48955E+00 -4.99829E-01
  1.51524E+00 -1.46714E-01  1.46191E+00  1.59021E-01  1.37755E+00  4.15694E-01  1.28477E+00  6.54739E-01
  1.16586E+00  9.06640E-01  9.80379E-01  1.16837E+00  7.01889E-01  1.39737E+00  3.45541E-01  1.53690E+00
 -3.45429E-02  1.55388E+00 -3.76492E-01  1.46065E+00 -6.47248E-01  1.30456E+00 -8.57261E-01  1.13326E+00
 -1.04275E+00  9.62014E-01 -1.22949E+00  7.67572E-01 -1.40591E+00  5.12913E-01 -1.52623E+00  1.83713E-01
 -1.54131E+00 -1.91449E-01 -1.43412E+00 -5.52800E-01 -1.23290E+00 -8.44513E-01 -9.92235E-01 -1.04708E+00
 -7.56271E-01 -1.18291E+00 -5.31740E-01 -1.29139E+00 -2.90868E-01 -1.39274E+00 -1.50932E-03 -1.46827E+00
  3.38778E-01 -1.47216E+00  6.90930E-01 -1.36583E+00  9.94165E-01 -1.14885E+00  1.20274E+00 -8.62968E-01
  1.31226E+00 -5.66104E-01  1.35602E+00 -2.95780E-01  1.37463E+00 -4.93805E-02  1.38202E+00  2.04318E-01
  1.35395E+00  4.91563E-01  1.24738E+00  8.03921E-01  1.03617E+00  1.09533E+00  7.35775E-01  1.30850E+00
  3.98055E-01  1.41096E+00  8.00340E-02  1.41382E+00 -1.90193E-01  1.35938E+00 -4.24949E-01  1.28718E+00
 -6.57715E-01  1.20433E+00 -9.08218E-01  1.08254E+00 -1.15874E+00  8.83875E-01 -1.35993E+00  5.95491E-01
 -1.46198E+00  2.46755E-01 -1.44777E+00 -1.04447E-01 -1.34315E+00 -4.06187E-01 -1.19672E+00 -6.42043E-01
 -1.04456E+00 -8.33827E-01 -8.86503E-01 -1.01596E+00 -6.91734E-01 -1.20135E+00 -4.29088E-01 -1.36496E+00
 -9.87977E-02 -1.45778E+00  2.58726E-01 -1.44068E+00  5.84053E-01 -1.31271E+00  8.34170E-01 -1.11251E+00
  1.00579E+00 -8.91728E-01  1.12937E+00 -6.80586E-01  1.23879E+00 -4.71426E-01  1.34011E+00 -2.32271E-01
  1.40312E+00  6.02330E-02  1.38239E+00  3.93892E-01  1.25167E+00  7.20808E-01  1.02573E+00  9.84462E-01
  7.53051E-01  1.15389E+00  4.84692E-01  1.23945E+00  2.42844E-01  1.27873E+00  1.23872E-02  1.30350E+00
 -2.38539E-01  1.31309E+00 -5.25037E-01  1.27430E+00 -8.24809E-01  1.14792E+00 -1.08636E+00  9.21655E-01
 -1.26015E+00  6.24342E-01 -1.32944E+00  3.10589E-01 -1.31774E+00  2.72067E-02 -1.26763E+00 -2.13474E-01
 -1.20713E+00 -4.33638E-01 -1.12910E+00 -6.63861E-01 -9.99353E-01 -9.11063E-01 -7.86865E-01 -1.14520E+00
 -4.93240E-01 -1.31509E+00 -1.58683E-01 -1.38152E+00  1.60200E-01 -1.34303E+00  4.24312E-01 -1.23473E+00
  6.32406E-01 -1.10161E+00  8.12946E-01 -9.66242E-01  9.94120E-01 -8.15473E-01  1.17514E+00 -6.15839E-01
  1.32086E+00 -3.45700E-01  1.38395E+00 -1.94683E-02  1.33799E+00  3.14737E-01  1.19659E+00  6.02556E-01
  1.00406E+00  8.15527E-01  8.04783E-01  9.63993E-01  6.14385E-01  1.08147E+00  4.14218E-01  1.19272E+00
  1.73025E-01  1.29000E+00 -1.21058E-01  1.33572E+00 -4.42753E-01  1.28941E+00 -7.39927E-01  1.13876E+00
 -9.64456E-01  9.11124E-01 -1.10065E+00  6.56775E-01 -1.17013E+00  4.16445E-01 -1.20981E+00  1.97530E-01
 -1.24002E+00 -2.34350E-02 -1.24702E+00 -2.74341E-01 -1.19323E+00 -5.57551E-01 -1.04731E+00 -8.39499E-01
 -8.11212E-01 -1.06804E+00 -5.23669E-01 -1.20470E+00 -2.37207E-01 -1.24774E+00  1.40490E-02 -1.22886E+00
  2.31803E-01 -1.18636E+00  4.43484E-01 -1.13520E+00  6.72732E-01 -1.05666E+00  9.13245E-01 -9.15357E-01
  1.12612E+00 -6.90434E-01  1.26297E+00 -3.97192E-01  1.29755E+00 -8.25138E-02  1.24215E+00  2.02695E-01
  1.13657E+00  4.33500E-01  1.01819E+00  6.21064E-01  8.95766E-01  7.95711E-01  7.46665E-01  9.76189E-01
  5.39418E-01  1.14877E+00  2.64159E-01  1.27227E+00 -5.23612E-02  1.30531E+00 -3.58845E-01  1.23542E+00
 -6.09770E-01  1.08789E+00 -7.91368E-01  9.07968E-01 -9.24006E-01  7.29690E-01 -1.03961E+00  5.54926E-01
 -1.15157E+00  3.58182E-01 -1.24026E+00  1.13177E-01 -1.26507E+00 -1.79299E-01 -1.19418E+00 -4.83677E-01
 -1.02928E+00 -7.48197E-01 -8.06663E-01 -9.36040E-01 -5.73839E-01 -1.04578E+00 -3.59130E-01 -1.10608E+00
 -1.57103E-01 -1.14895E+00  5.95618E-02 -1.18214E+00  3.11154E-01 -1.18169E+00  5.87261E-01 -1.11014E+00
  8.46603E-01 -9.46838E-01  1.04079E+00 -7.06919E-01  1.14432E+00 -4.34835E-01  1.16836E+00 -1.76930E-01
  1.14829E+00  4.63113E-02  1.11454E+00  2.47720E-01  1.06904E+00  4.55398E-01  9.85070E-01  6.83259E-01
  8.30390E-01  9.12839E-01  5.96129E-01  1.10044E+00  3.09199E-01  1.20446E+00  1.87303E-02  1.21237E+00
 -2.33485E-01  1.14726E+00 -4.36484E-01  1.04904E+00 -6.10185E-01  9.44811E-01 -7.82407E-01  8.30625E-01
 -9.60650E-01  6.78463E-01 -1.12032E+00  4.62757E-01 -1.21852E+00  1.86176E-01 -1.22312E+00 -1.15145E-01
 -1.13524E+00 -3.91150E-01 -9.88205E-01 -6.07685E-01 -8.23900E-01 -7.64383E-01 -6.64312E-01 -8.87480E-01
 -4.99715E-01 -1.00341E+00 -3.02116E-01 -1.11349E+00 -5.34456E-02 -1.18906E+00  2.33170E-01 -1.19091E+00
  5.15482E-01 -1.09823E+00  7.46252E-01 -9.25335E-01  9.01483E-01 -7.13351E-01  9.91733E-01 -5.03229E-01
  1.04831E+00 -3.10278E-01  1.09514E+00 -1.19248E-01  1.12775E+00  9.66949E-02  1.11550E+00  3.47854E-01
  1.02519E+00  6.12391E-01  8.48204E-01  8.45343E-01  6.10592E-01  1.00571E+00  3.58214E-01  1.08138E+00
  1.28170E-01  1.09336E+00 -7.22028E-02  1.07636E+00 -2.63200E-01  1.05060E+00 -4.69530E-01  1.00642E+00
 -6.93965E-01  9.13046E-01 -9.08155E-01  7.44983E-01 -1.06781E+00  5.05722E-01 -1.14100E+00  2.30707E-01
 -1.12830E+00 -3.29049E-02 -1.05989E+00 -2.54596E-01 -9.71791E-01 -4.35848E-01 -8.79456E-01 -6.01265E-01
 -7.68592E-01 -7.72609E-01 -6.09958E-01 -9.45752E-01 -3.86744E-01 -1.08827E+00 -1.13512E-01 -1.15965E+00
