 $NMID ID='GPC', FMTDAT='(8E13.5)'
 TRAMP=1., VOLUME=1. $END
  1.70275E+01 -1.45816E-04  1.65247E+01  3.73395E+00  1.51185E+01  7.17433E+00  1.29639E+01  1.01000E+01
  1.02526E+01  1.23773E+01  7.16465E+00  1.39399E+01  3.85555E+00  1.47485E+01  4.81186E-01  1.47652E+01
 -2.77013E+00  1.39668E+01 -5.67255E+00  1.23856E+01 -7.99893E+00  1.01465E+01 -9.58025E+00  7.46492E+00
 -1.03506E+01  4.60224E+00 -1.03490E+01  1.80140E+00 -9.67958E+00 -7.56983E-01 -8.46003E+00 -2.95612E+00
 -6.79388E+00 -4.71061E+00 -4.78283E+00 -5.93323E+00 -2.56130E+00 -6.53274E+00 -3.18457E-01 -6.44852E+00
  1.71889E+00 -5.69733E+00  3.33913E+00 -4.39571E+00  4.40335E+00 -2.73744E+00  4.87168E+00 -9.37167E-01
  4.78402E+00  8.24784E-01  4.21323E+00  2.42377E+00  3.22663E+00  3.77165E+00  1.88286E+00  4.78093E+00
  2.61862E-01  5.34739E+00 -1.50142E+00  5.37096E+00 -3.21318E+00  4.80314E+00 -4.65847E+00  3.68713E+00
 -5.66101E+00  2.15960E+00 -6.12819E+00  4.09786E-01 -6.05468E+00 -1.37841E+00 -5.48738E+00 -3.06467E+00
 -4.48158E+00 -4.55044E+00 -3.08226E+00 -5.74739E+00 -1.34272E+00 -6.54894E+00  6.37843E-01 -6.83434E+00
  2.69246E+00 -6.50835E+00  4.60457E+00 -5.55102E+00  6.16108E+00 -4.04186E+00  7.20893E+00 -2.13978E+00
  7.68103E+00 -3.12091E-02  7.57924E+00  2.11952E+00  6.93311E+00  4.18692E+00  5.76906E+00  6.06417E+00
  4.11433E+00  7.63018E+00  2.03102E+00  8.73788E+00 -3.49477E-01  9.24067E+00 -2.82380E+00  9.04362E+00
 -5.15529E+00  8.14566E+00 -7.13341E+00  6.64318E+00 -8.61812E+00  4.69275E+00 -9.54445E+00  2.45858E+00
 -9.89179E+00  7.97660E-02 -9.64747E+00 -2.32478E+00 -8.79622E+00 -4.62588E+00 -7.34511E+00 -6.66019E+00
 -5.36417E+00 -8.24029E+00 -3.00849E+00 -9.19942E+00 -4.99642E-01 -9.44456E+00  1.92694E+00 -8.98311E+00
  4.07729E+00 -7.90650E+00  5.82442E+00 -6.34406E+00  7.09400E+00 -4.42049E+00  7.82941E+00 -2.24478E+00
  7.96964E+00  6.72585E-02  7.46151E+00  2.36202E+00  6.29962E+00  4.44104E+00  4.56348E+00  6.09250E+00
  2.42156E+00  7.14621E+00  9.41985E-02  7.51850E+00 -2.20323E+00  7.21937E+00 -4.30211E+00  6.32082E+00
 -6.08498E+00  4.91223E+00 -7.45859E+00  3.07578E+00 -8.32477E+00  8.97248E-01 -8.57860E+00 -1.50173E+00
 -8.14094E+00 -3.94156E+00 -7.00402E+00 -6.19808E+00 -5.25663E+00 -8.05046E+00 -3.06839E+00 -9.33620E+00
 -6.41217E-01 -9.98017E+00  1.84133E+00 -9.98253E+00  4.23610E+00 -9.37999E+00  6.42600E+00 -8.21233E+00
  8.28932E+00 -6.51989E+00  9.68477E+00 -4.37143E+00  1.04714E+01 -1.89683E+00  1.05542E+01  7.06793E-01
  9.92591E+00  3.20780E+00  8.67415E+00  5.39564E+00  6.94918E+00  7.12606E+00  4.91329E+00  8.33016E+00
  2.70517E+00  8.98784E+00  4.39402E-01  9.09133E+00 -1.76683E+00  8.62992E+00 -3.76859E+00  7.60840E+00
 -5.39732E+00  6.08394E+00 -6.49882E+00  4.18984E+00 -6.98277E+00  2.12268E+00 -6.85106E+00  9.55474E-02
 -6.18614E+00 -1.71523E+00 -5.10848E+00 -3.19803E+00 -3.73340E+00 -4.29560E+00 -2.15558E+00 -4.97169E+00
 -4.66844E-01 -5.18546E+00  1.21366E+00 -4.89703E+00  2.72787E+00 -4.10124E+00  3.90264E+00 -2.86347E+00
  4.59856E+00 -1.32737E+00  4.75320E+00  3.16086E-01  4.39093E+00  1.88138E+00  3.59484E+00  3.23048E+00
  2.46273E+00  4.28059E+00  1.07872E+00  4.97967E+00 -4.81779E-01  5.27545E+00 -2.12332E+00  5.10712E+00
 -3.70663E+00  4.42988E+00 -5.05561E+00  3.25549E+00 -5.99772E+00  1.67769E+00 -6.41471E+00 -1.39200E-01
 -6.27185E+00 -2.00459E+00 -5.60871E+00 -3.75134E+00 -4.50155E+00 -5.26077E+00 -3.02685E+00 -6.45226E+00
 -1.25221E+00 -7.25314E+00  7.42271E-01 -7.57926E+00  2.83353E+00 -7.34672E+00  4.84619E+00 -6.51030E+00
  6.57896E+00 -5.10162E+00  7.85501E+00 -3.23827E+00  8.56592E+00 -1.09484E+00  8.68312E+00  1.14634E+00
  8.23363E+00  3.33364E+00  7.26247E+00  5.35191E+00  5.81152E+00  7.09961E+00  3.93019E+00  8.46275E+00
  1.70663E+00  9.31321E+00 -7.08977E-01  9.53913E+00 -3.11342E+00  9.08944E+00 -5.29235E+00  8.00180E+00
 -7.07172E+00  6.39371E+00 -8.34788E+00  4.42224E+00 -9.08115E+00  2.23923E+00 -9.26413E+00 -2.95509E-02
 -8.89306E+00 -2.27269E+00 -7.96651E+00 -4.36560E+00 -6.51223E+00 -6.15643E+00 -4.61990E+00 -7.48391E+00
 -2.45059E+00 -8.22063E+00 -2.10184E-01 -8.31473E+00  1.90053E+00 -7.80213E+00  3.72907E+00 -6.78205E+00
  5.18332E+00 -5.37376E+00  6.21114E+00 -3.68475E+00  6.76945E+00 -1.80953E+00  6.81149E+00  1.46304E-01
  6.30473E+00  2.04249E+00  5.26692E+00  3.70671E+00  3.79169E+00  4.96928E+00  2.04104E+00  5.71076E+00
  2.05351E-01  5.89244E+00 -1.54532E+00  5.55110E+00 -3.08930E+00  4.76442E+00 -4.34741E+00  3.61353E+00
 -5.25518E+00  2.16902E+00 -5.74106E+00  5.07101E-01 -5.73224E+00 -1.26215E+00 -5.18741E+00 -2.98260E+00
 -4.13291E+00 -4.47261E+00 -2.67452E+00 -5.57044E+00 -9.73315E-01 -6.17715E+00  8.00559E-01 -6.27075E+00
  2.50721E+00 -5.88563E+00  4.04671E+00 -5.07575E+00  5.33954E+00 -3.89011E+00  6.30000E+00 -2.37776E+00
  6.82950E+00 -6.15013E-01  6.84026E+00  1.27079E+00  6.29529E+00  3.10536E+00  5.23644E+00  4.70343E+00
  3.77917E+00  5.91670E+00  2.07607E+00  6.66473E+00  2.72725E-01  6.93168E+00 -1.51618E+00  6.73636E+00
 -3.19930E+00  6.10154E+00 -4.68262E+00  5.04695E+00 -5.85220E+00  3.61023E+00 -6.58539E+00  1.87722E+00
 -6.78772E+00 -6.14519E-03 -6.43187E+00 -1.85504E+00 -5.57145E+00 -3.49108E+00 -4.31995E+00 -4.78461E+00
 -2.80900E+00 -5.66917E+00 -1.15432E+00 -6.12374E+00  5.50285E-01 -6.14144E+00  2.21268E+00 -5.71200E+00
  3.71838E+00 -4.83293E+00  4.92829E+00 -3.54034E+00  5.70664E+00 -1.93398E+00  5.96398E+00 -1.73228E-01
  5.68713E+00  1.55842E+00  4.93655E+00  3.09998E+00  3.81393E+00  4.34274E+00  2.42363E+00  5.22780E+00
  8.54155E-01  5.71997E+00 -8.11295E-01  5.78326E+00 -2.46907E+00  5.38051E+00 -3.98073E+00  4.49955E+00
 -5.18802E+00  3.18606E+00 -5.95279E+00  1.55659E+00 -6.19784E+00 -2.21768E-01 -5.92267E+00 -1.97490E+00
 -5.18571E+00 -3.56168E+00 -4.06804E+00 -4.88741E+00 -2.64540E+00 -5.88772E+00 -9.87280E-01 -6.50202E+00
  8.20706E-01 -6.66240E+00  2.65379E+00 -6.31073E+00  4.34849E+00 -5.43363E+00  5.73329E+00 -4.08958E+00
  6.67332E+00 -2.40644E+00  7.10184E+00 -5.48188E-01  7.01989E+00  1.32867E+00  6.46862E+00  3.10205E+00
  5.49708E+00  4.68129E+00  4.15012E+00  5.98359E+00  2.48353E+00  6.91492E+00  5.91082E-01  7.37570E+00
 -1.38205E+00  7.29204E+00 -3.25611E+00  6.65189E+00 -4.85803E+00  5.52031E+00 -6.06281E+00  4.02175E+00
 -6.81068E+00  2.30037E+00 -7.09258E+00  4.84293E-01 -6.91961E+00 -1.32483E+00 -6.30223E+00 -3.03563E+00
 -5.25555E+00 -4.54361E+00 -3.82561E+00 -5.72519E+00 -2.11355E+00 -6.45988E+00 -2.74903E-01 -6.66920E+00
  1.51140E+00 -6.34641E+00  3.08735E+00 -5.55675E+00  4.34687E+00 -4.40822E+00  5.23695E+00 -3.01321E+00
  5.73384E+00 -1.46658E+00  5.81731E+00  1.48427E-01  5.46536E+00  1.73692E+00  4.67485E+00  3.17627E+00
  3.49170E+00  4.32596E+00  2.02539E+00  5.06233E+00  4.32929E-01  5.31720E+00 -1.12100E+00  5.09524E+00
 -2.50362E+00  4.45961E+00 -3.63020E+00  3.49726E+00 -4.45118E+00  2.28910E+00 -4.92600E+00  9.04564E-01
 -5.00839E+00 -5.79936E-01 -4.65770E+00 -2.05831E+00 -3.86924E+00 -3.39143E+00 -2.70064E+00 -4.43213E+00
 -1.27241E+00 -5.06592E+00  2.61279E-01 -5.24213E+00  1.75425E+00 -4.97611E+00  3.09685E+00 -4.32396E+00
  4.21630E+00 -3.34968E+00  5.05509E+00 -2.10918E+00  5.54987E+00 -6.60233E-01  5.63187E+00  9.12941E-01
  5.25209E+00  2.48473E+00  4.41438E+00  3.90007E+00  3.19155E+00  5.01068E+00  1.71103E+00  5.71445E+00
  1.17788E-01  5.97385E+00 -1.46195E+00  5.80400E+00 -2.93438E+00  5.24281E+00 -4.22532E+00  4.32702E+00
 -5.25704E+00  3.09213E+00 -5.93846E+00  1.59397E+00 -6.18136E+00 -6.82687E-02 -5.93425E+00 -1.74971E+00
 -5.21086E+00 -3.28610E+00 -4.09248E+00 -4.53497E+00 -2.70142E+00 -5.40692E+00 -1.16315E+00 -5.86924E+00
  4.18579E-01 -5.92405E+00  1.96001E+00 -5.58120E+00  3.37683E+00 -4.84821E+00  4.56658E+00 -3.74506E+00
  5.41368E+00 -2.33098E+00  5.81865E+00 -7.19591E-01  5.73380E+00  9.33537E-01  5.18131E+00  2.46712E+00
  4.24150E+00  3.75300E+00  3.01963E+00  4.71449E+00  1.61438E+00  5.31654E+00  1.07984E-01  5.54025E+00
 -1.41959E+00  5.36508E+00 -2.86900E+00  4.77451E+00 -4.11522E+00  3.78159E+00 -5.02749E+00  2.45373E+00
 -5.50604E+00  9.15541E-01 -5.51254E+00 -6.76835E-01 -5.07463E+00 -2.17549E+00 -4.26297E+00 -3.47069E+00
 -3.15843E+00 -4.49456E+00 -1.83246E+00 -5.20198E+00 -3.52284E-01 -5.54847E+00  1.19764E+00 -5.48612E+00
  2.69984E+00 -4.98343E+00  4.01171E+00 -4.05513E+00  4.99717E+00 -2.77893E+00  5.56410E+00 -1.28435E+00
  5.68394E+00  2.81545E-01  5.38272E+00  1.79048E+00  4.71249E+00  3.14961E+00  3.72542E+00  4.29210E+00
  2.46920E+00  5.15500E+00  1.00417E+00  5.66656E+00 -5.74754E-01  5.75726E+00 -2.13329E+00  5.38925E+00
 -3.51952E+00  4.58364E+00 -4.60177E+00  3.42501E+00 -5.29985E+00  2.03805E+00 -5.59111E+00  5.51039E-01
 -5.49105E+00 -9.30883E-01 -5.02578E+00 -2.32775E+00 -4.21832E+00 -3.56664E+00 -3.09854E+00 -4.56324E+00
 -1.72675E+00 -5.22246E+00 -2.09672E-01 -5.46259E+00  1.30829E+00 -5.24797E+00  2.67729E+00 -4.60780E+00
  3.77929E+00 -3.62721E+00  4.54801E+00 -2.41637E+00  4.96179E+00 -1.07835E+00  5.01919E+00  3.04065E-01
  4.71886E+00  1.65775E+00  4.06038E+00  2.89856E+00  3.06529E+00  3.92221E+00  1.80061E+00  4.61917E+00
  3.83840E-01  4.90710E+00 -1.03866E+00  4.76014E+00 -2.32877E+00  4.21534E+00 -3.38684E+00  3.35234E+00
 -4.15804E+00  2.26107E+00 -4.61529E+00  1.01967E+00 -4.73644E+00 -3.04414E-01 -4.49609E+00 -1.63574E+00
 -3.88023E+00 -2.87420E+00 -2.91275E+00 -3.89880E+00 -1.67250E+00 -4.59451E+00 -2.85178E-01 -4.88682E+00
  1.10767E+00 -4.76197E+00  2.38421E+00 -4.26030E+00  3.46094E+00 -3.44917E+00  4.28619E+00 -2.39564E+00
  4.81879E+00 -1.15782E+00  5.01281E+00  2.02078E-01  4.82350E+00  1.59718E+00  4.23198E+00  2.90877E+00
  3.27083E+00  4.00350E+00  2.03019E+00  4.76753E+00  6.37565E-01  5.13687E+00 -7.77168E-01  5.10527E+00
 -2.10963E+00  4.70692E+00 -3.28615E+00  3.98872E+00 -4.24812E+00  2.99336E+00 -4.93272E+00  1.76439E+00
 -5.26966E+00  3.66710E-01 -5.20011E+00 -1.09740E+00 -4.70601E+00 -2.49362E+00 -3.82888E+00 -3.68377E+00
