 $NMID ID='GSH', FMTDAT='(8E13.5)'
 TRAMP=1., VOLUME=1. $END
  7.81558E+00  7.52768E-02  7.33567E+00  2.28032E+00  6.11545E+00  4.10262E+00  4.40768E+00  5.29828E+00
  2.52336E+00  5.77815E+00  7.44536E-01  5.59473E+00 -7.25738E-01  4.88844E+00 -1.76723E+00  3.83238E+00
 -2.32197E+00  2.60437E+00 -2.38113E+00  1.38523E+00 -1.99430E+00  3.58981E-01 -1.28788E+00 -3.10005E-01
 -4.62977E-01 -5.24331E-01  2.46885E-01 -2.99203E-01  6.48526E-01  2.28533E-01  6.56335E-01  8.44456E-01
  3.15276E-01  1.33653E+00 -2.34011E-01  1.56933E+00 -8.26423E-01  1.51397E+00 -1.33753E+00  1.22395E+00
 -1.70851E+00  7.81102E-01 -1.92717E+00  2.51001E-01 -1.99145E+00 -3.26205E-01 -1.88949E+00 -9.14259E-01
 -1.61162E+00 -1.45718E+00 -1.18000E+00 -1.88161E+00 -6.64935E-01 -2.12932E+00 -1.65693E-01 -2.19619E+00
  2.37620E-01 -2.14450E+00  5.29693E-01 -2.07273E+00  7.69325E-01 -2.05784E+00  1.05226E+00 -2.10736E+00
  1.44985E+00 -2.15362E+00  1.96315E+00 -2.09443E+00  2.52145E+00 -1.85276E+00  3.02325E+00 -1.41629E+00
  3.38889E+00 -8.33660E-01  3.58912E+00 -1.76004E-01  3.63408E+00  5.03916E-01  3.53837E+00  1.18450E+00
  3.29462E+00  1.85408E+00  2.87934E+00  2.47801E+00  2.28681E+00  2.98606E+00  1.56251E+00  3.29610E+00
  8.05326E-01  3.36027E+00  1.30458E-01  3.20009E+00 -3.85048E-01  2.90209E+00 -7.37349E-01  2.57321E+00
 -9.86766E-01  2.28424E+00 -1.21061E+00  2.03876E+00 -1.45036E+00  1.78712E+00 -1.68868E+00  1.47327E+00
 -1.86926E+00  1.07982E+00 -1.94146E+00  6.40381E-01 -1.89523E+00  2.13814E-01 -1.76158E+00 -1.56388E-01
 -1.58178E+00 -4.64729E-01 -1.37299E+00 -7.31537E-01 -1.11982E+00 -9.67889E-01 -8.00110E-01 -1.14868E+00
 -4.24554E-01 -1.21929E+00 -5.67998E-02 -1.13516E+00  2.06619E-01 -9.06636E-01  2.87599E-01 -6.14646E-01
  1.75892E-01 -3.81750E-01 -5.71152E-02 -3.14378E-01 -2.90178E-01 -4.52362E-01 -4.08618E-01 -7.56580E-01
 -3.49136E-01 -1.13861E+00 -1.07683E-01 -1.50782E+00  2.86560E-01 -1.80235E+00  8.03995E-01 -1.98645E+00
  1.42520E+00 -2.02514E+00  2.12141E+00 -1.86544E+00  2.82414E+00 -1.44758E+00  3.41509E+00 -7.44197E-01
  3.75412E+00  1.99495E-01  3.73465E+00  1.25697E+00  3.33338E+00  2.25582E+00  2.62201E+00  3.03982E+00
  1.73355E+00  3.52133E+00  8.05092E-01  3.69457E+00 -6.65821E-02  3.60761E+00 -8.32748E-01  3.31829E+00
 -1.46812E+00  2.86718E+00 -1.94139E+00  2.28366E+00 -2.20924E+00  1.61322E+00 -2.24068E+00  9.36453E-01
 -2.05191E+00  3.57054E-01 -1.72074E+00 -3.89461E-02 -1.36339E+00 -2.25781E-01 -1.08403E+00 -2.51129E-01
 -9.29169E-01 -2.08025E-01 -8.76599E-01 -1.82741E-01 -8.65141E-01 -2.12944E-01 -8.42691E-01 -2.82620E-01
 -7.98375E-01 -3.53420E-01 -7.57849E-01 -4.06156E-01 -7.48998E-01 -4.60363E-01 -7.67124E-01 -5.58063E-01
 -7.67980E-01 -7.25937E-01 -6.94648E-01 -9.46734E-01 -5.17619E-01 -1.16338E+00 -2.56829E-01 -1.31378E+00
  3.19706E-02 -1.37033E+00  2.96876E-01 -1.35402E+00  5.25663E-01 -1.31205E+00  7.50374E-01 -1.27565E+00
  1.01658E+00 -1.22993E+00  1.33997E+00 -1.11948E+00  1.68279E+00 -8.86300E-01  1.96822E+00 -5.12935E-01
  2.12298E+00 -3.95643E-02  2.11757E+00  4.57070E-01  1.97619E+00  9.06835E-01  1.75098E+00  1.27993E+00
  1.48183E+00  1.58769E+00  1.17296E+00  1.85271E+00  8.03200E-01  2.07356E+00  3.60753E-01  2.21343E+00
 -1.26654E-01  2.22236E+00 -5.91636E-01  2.07681E+00 -9.59795E-01  1.80550E+00 -1.19233E+00  1.48038E+00
 -1.30736E+00  1.17722E+00 -1.36382E+00  9.33330E-01 -1.41919E+00  7.32333E-01 -1.49132E+00  5.26256E-01
 -1.55146E+00  2.77777E-01 -1.55189E+00 -8.79098E-03 -1.46623E+00 -2.90022E-01 -1.31159E+00 -5.16014E-01
 -1.13632E+00 -6.67195E-01 -9.83774E-01 -7.66777E-01 -8.60539E-01 -8.59519E-01 -7.34219E-01 -9.73576E-01
 -5.62634E-01 -1.09540E+00 -3.32101E-01 -1.17777E+00 -7.49524E-02 -1.17569E+00  1.48150E-01 -1.08328E+00
  2.88952E-01 -9.43473E-01  3.45594E-01 -8.22215E-01  3.64661E-01 -7.65459E-01  4.09596E-01 -7.69889E-01
  5.18465E-01 -7.88188E-01  6.81528E-01 -7.64042E-01  8.53745E-01 -6.70365E-01  9.91086E-01 -5.22717E-01
  1.08205E+00 -3.59390E-01  1.15032E+00 -2.05214E-01  1.22727E+00 -4.83719E-02  1.31659E+00  1.50843E-01
  1.37966E+00  4.25322E-01  1.35482E+00  7.66962E-01  1.19764E+00  1.11986E+00  9.12895E-01  1.40762E+00
  5.54626E-01  1.57600E+00  1.93878E-01  1.62065E+00 -1.22436E-01  1.58063E+00 -3.92092E-01  1.50375E+00
 -6.43834E-01  1.41031E+00 -9.01557E-01  1.28234E+00 -1.15485E+00  1.08528E+00 -1.35895E+00  8.04547E-01
 -1.46421E+00  4.67799E-01 -1.45257E+00  1.34988E-01 -1.35271E+00 -1.37004E-01 -1.22184E+00 -3.28889E-01
 -1.10733E+00 -4.66703E-01 -1.01662E+00 -5.96951E-01 -9.17753E-01 -7.47907E-01 -7.69863E-01 -9.06227E-01
 -5.60185E-01 -1.02642E+00 -3.19500E-01 -1.06591E+00 -1.04092E-01 -1.01903E+00  4.23444E-02 -9.24247E-01
  1.18380E-01 -8.38974E-01  1.64025E-01 -8.00678E-01  2.30318E-01 -8.03207E-01  3.42333E-01 -8.05455E-01
  4.83229E-01 -7.65060E-01  6.10660E-01 -6.71093E-01  6.92160E-01 -5.50863E-01  7.31772E-01 -4.45985E-01
  7.67028E-01 -3.76568E-01  8.38195E-01 -3.21578E-01  9.53125E-01 -2.31322E-01  1.07479E+00 -6.35818E-02
  1.14183E+00  1.83187E-01  1.10768E+00  4.64338E-01  9.70017E-01  7.15485E-01  7.69467E-01  8.91600E-01
  5.59362E-01  9.90364E-01  3.69802E-01  1.04363E+00  1.92758E-01  1.08500E+00 -1.51784E-03  1.11928E+00
 -2.30661E-01  1.11759E+00 -4.76082E-01  1.04184E+00 -6.88198E-01  8.79418E-01 -8.18005E-01  6.60767E-01
 -8.51567E-01  4.45287E-01 -8.21233E-01  2.84845E-01 -7.84520E-01  1.91359E-01 -7.85646E-01  1.32131E-01
 -8.27557E-01  5.61136E-02 -8.74337E-01 -6.85313E-02 -8.81118E-01 -2.33226E-01 -8.28306E-01 -3.98980E-01
 -7.34264E-01 -5.28751E-01 -6.37501E-01 -6.16573E-01 -5.62887E-01 -6.90749E-01 -4.98665E-01 -7.88558E-01
 -4.02765E-01 -9.22017E-01 -2.34474E-01 -1.06138E+00  1.20132E-02 -1.14994E+00  2.97533E-01 -1.14003E+00
  5.59365E-01 -1.02416E+00  7.48742E-01 -8.38682E-01  8.57250E-01 -6.37674E-01  9.13471E-01 -4.57022E-01
  9.53711E-01 -2.95284E-01  9.89966E-01 -1.24895E-01  9.99867E-01  7.60562E-02  9.46204E-01  2.96851E-01
  8.10757E-01  4.93563E-01  6.15974E-01  6.16198E-01  4.17046E-01  6.43535E-01  2.69224E-01  5.99438E-01
  1.93979E-01  5.38056E-01  1.68619E-01  5.08459E-01  1.46522E-01  5.24494E-01  9.23771E-02  5.61455E-01
  6.02356E-03  5.80839E-01 -8.24266E-02  5.63413E-01 -1.41395E-01  5.24940E-01 -1.67546E-01  5.02533E-01
 -1.92761E-01  5.22332E-01 -2.62227E-01  5.73728E-01 -3.99667E-01  6.10660E-01 -5.85916E-01  5.80149E-01
 -7.67350E-01  4.57615E-01 -8.88525E-01  2.63219E-01 -9.25425E-01  4.75211E-02 -8.95488E-01 -1.42535E-01
 -8.38141E-01 -2.91997E-01 -7.81623E-01 -4.20126E-01 -7.21721E-01 -5.56101E-01 -6.28433E-01 -7.08019E-01
 -4.74851E-01 -8.49841E-01 -2.65324E-01 -9.36964E-01 -4.03453E-02 -9.38892E-01  1.46735E-01 -8.64013E-01
  2.64518E-01 -7.57032E-01  3.24107E-01 -6.69964E-01  3.69919E-01 -6.27461E-01  4.47230E-01 -6.11615E-01
  5.70061E-01 -5.76965E-01  7.12424E-01 -4.84150E-01  8.28307E-01 -3.27215E-01  8.84378E-01 -1.34996E-01
  8.80416E-01  5.29584E-02  8.42574E-01  2.16237E-01  7.95841E-01  3.65470E-01  7.38294E-01  5.26871E-01
  6.38479E-01  7.11544E-01  4.59487E-01  8.94050E-01  1.92462E-01  1.01838E+00 -1.25714E-01  1.02914E+00
 -4.24875E-01  9.06620E-01 -6.36666E-01  6.81148E-01 -7.28433E-01  4.16741E-01 -7.13340E-01  1.76248E-01
 -6.31927E-01 -7.30353E-03 -5.21064E-01 -1.34296E-01 -3.94484E-01 -2.17899E-01 -2.48672E-01 -2.58515E-01
 -8.72159E-02 -2.35653E-01  5.84050E-02 -1.25189E-01  1.31420E-01  7.08940E-02  7.77127E-02  3.06318E-01
 -1.19009E-01  5.00721E-01 -4.19835E-01  5.74682E-01 -7.44456E-01  4.87625E-01 -1.00783E+00  2.54115E-01
 -1.15572E+00 -7.07161E-02 -1.17703E+00 -4.24344E-01 -1.08863E+00 -7.64361E-01 -9.08321E-01 -1.07241E+00
 -6.39246E-01 -1.33598E+00 -2.78029E-01 -1.52703E+00  1.60942E-01 -1.59854E+00  6.26875E-01 -1.50544E+00
  1.03826E+00 -1.23633E+00  1.31356E+00 -8.32018E-01  1.40830E+00 -3.75123E-01  1.33386E+00  4.49170E-02
  1.14544E+00  3.69364E-01  9.08079E-01  5.86495E-01  6.64418E-01  7.18405E-01  4.25013E-01  7.90983E-01
  1.84609E-01  8.10763E-01 -5.19204E-02  7.65364E-01 -2.56554E-01  6.44973E-01 -3.89488E-01  4.65571E-01
 -4.26463E-01  2.73193E-01 -3.80286E-01  1.23345E-01 -2.98368E-01  4.94163E-02 -2.35953E-01  4.33239E-02
 -2.23284E-01  6.33269E-02 -2.50082E-01  6.41448E-02 -2.78383E-01  2.79738E-02 -2.74065E-01 -2.57183E-02
 -2.33862E-01 -5.80816E-02 -1.88348E-01 -4.25871E-02 -1.79404E-01  1.31539E-02 -2.29571E-01  7.12616E-02
 -3.26174E-01  8.94726E-02 -4.31430E-01  4.90569E-02 -5.09873E-01 -3.61306E-02 -5.51506E-01 -1.35415E-01
 -5.72937E-01 -2.28591E-01 -5.96150E-01 -3.22632E-01 -6.22268E-01 -4.44063E-01 -6.21948E-01 -6.12342E-01
 -5.51590E-01 -8.14871E-01 -3.84684E-01 -1.00389E+00 -1.35472E-01 -1.11967E+00  1.43119E-01 -1.12475E+00
  3.86906E-01 -1.02548E+00  5.54633E-01 -8.66030E-01  6.45691E-01 -6.99572E-01  6.90517E-01 -5.57565E-01
  7.22741E-01 -4.38117E-01  7.54670E-01 -3.19478E-01  7.73759E-01 -1.85723E-01  7.60519E-01 -4.32541E-02
  7.11451E-01  8.48938E-02  6.46837E-01  1.81653E-01  5.95529E-01  2.55962E-01  5.67746E-01  3.41968E-01
  5.37633E-01  4.74871E-01  4.51519E-01  6.59453E-01  2.59365E-01  8.54414E-01 -5.04894E-02  9.85686E-01
 -4.36493E-01  9.81926E-01 -8.18916E-01  8.10051E-01 -1.11453E+00  4.89135E-01 -1.26838E+00  7.66009E-02
 -1.26443E+00 -3.60397E-01 -1.11361E+00 -7.67187E-01 -8.34688E-01 -1.10421E+00 -4.46466E-01 -1.33448E+00
  2.16641E-02 -1.41328E+00  5.11540E-01 -1.29609E+00  9.30368E-01 -9.65006E-01  1.17035E+00 -4.56930E-01
  1.14863E+00  1.28534E-01  8.46127E-01  6.52646E-01  3.21809E-01  9.83333E-01 -3.06507E-01  1.03938E+00
 -9.03448E-01  8.10457E-01 -1.35587E+00  3.46698E-01 -1.59205E+00 -2.69530E-01 -1.57810E+00 -9.48590E-01
 -1.30553E+00 -1.60213E+00 -7.87175E-01 -2.13884E+00 -6.74480E-02 -2.46325E+00  7.63684E-01 -2.49128E+00
  1.57160E+00 -2.18118E+00  2.20384E+00 -1.56255E+00  2.53573E+00 -7.42125E-01  2.51267E+00  1.23162E-01
  2.16579E+00  8.75179E-01  1.59341E+00  1.40111E+00  9.20177E-01  1.65525E+00  2.58099E-01  1.65041E+00
