 $NMID ID='Ins', FMTDAT='(8E13.5)'
 TRAMP=1., VOLUME=1. $END
  5.14642E+00  3.90023E-02  4.97092E+00  1.10891E+00  4.54745E+00  2.06206E+00  3.95894E+00  2.84305E+00
  3.28345E+00  3.45758E+00  2.55414E+00  3.94261E+00  1.75836E+00  4.31804E+00  8.74801E-01  4.55740E+00
 -8.06939E-02  4.60027E+00 -1.03706E+00  4.39708E+00 -1.89271E+00  3.95224E+00 -2.56567E+00  3.33236E+00
 -3.03239E+00  2.63287E+00 -3.32698E+00  1.92713E+00 -3.50230E+00  1.23550E+00 -3.58288E+00  5.36255E-01
 -3.54537E+00 -1.91345E-01 -3.34107E+00 -9.25940E-01 -2.94279E+00 -1.59710E+00 -2.37984E+00 -2.11876E+00
 -1.73375E+00 -2.43853E+00 -1.09706E+00 -2.56601E+00 -5.25197E-01 -2.55914E+00 -1.67865E-02 -2.47912E+00
  4.63919E-01 -2.34768E+00  9.40614E-01 -2.13875E+00  1.39047E+00 -1.80992E+00  1.74832E+00 -1.34910E+00
  1.94662E+00 -8.00076E-01  1.96107E+00 -2.46843E-01  1.82741E+00  2.32199E-01  1.61654E+00  6.06379E-01
  1.38661E+00  9.00060E-01  1.14779E+00  1.16037E+00  8.65831E-01  1.41033E+00  5.00859E-01  1.62325E+00
  5.13135E-02  1.73777E+00 -4.30855E-01  1.70216E+00 -8.65778E-01  1.51411E+00 -1.19312E+00  1.22575E+00
 -1.40592E+00  9.09865E-01 -1.54564E+00  6.12650E-01 -1.66257E+00  3.28240E-01 -1.77188E+00  1.38587E-02
 -1.83851E+00 -3.66499E-01 -1.80243E+00 -8.03388E-01 -1.62482E+00 -1.23788E+00 -1.32014E+00 -1.59545E+00
 -9.49739E-01 -1.83247E+00 -5.81655E-01 -1.96025E+00 -2.46945E-01 -2.02888E+00  7.47286E-02 -2.08344E+00
  4.29738E-01 -2.12576E+00  8.44955E-01 -2.11094E+00  1.29686E+00 -1.98110E+00  1.71890E+00 -1.71080E+00
  2.04184E+00 -1.32965E+00  2.23667E+00 -9.05153E-01  2.32812E+00 -4.98575E-01  2.36881E+00 -1.27216E-01
  2.39414E+00  2.38703E-01  2.39213E+00  6.42600E-01  2.31139E+00  1.09729E+00  2.10101E+00  1.56384E+00
  1.75220E+00  1.96985E+00  1.31024E+00  2.25371E+00  8.47509E-01  2.40169E+00  4.17971E-01  2.45026E+00
  2.72523E-02  2.45243E+00 -3.59556E-01  2.43393E+00 -7.78845E-01  2.37264E+00 -1.22834E+00  2.21682E+00
 -1.65676E+00  1.92834E+00 -1.99163E+00  1.51792E+00 -2.18447E+00  1.04553E+00 -2.23982E+00  5.85491E-01
 -2.20635E+00  1.82160E-01 -2.13737E+00 -1.70659E-01 -2.05072E+00 -5.11791E-01 -1.91839E+00 -8.70482E-01
 -1.69356E+00 -1.23255E+00 -1.35414E+00 -1.54102E+00 -9.29476E-01 -1.73115E+00 -4.89623E-01 -1.77368E+00
 -1.04711E-01 -1.69381E+00  1.95287E-01 -1.55182E+00  4.30704E-01 -1.40007E+00  6.45262E-01 -1.24873E+00
  8.63142E-01 -1.06598E+00  1.06304E+00 -8.11795E-01  1.18915E+00 -4.79282E-01  1.19088E+00 -1.11600E-01
  1.06133E+00  2.18866E-01  8.45246E-01  4.53860E-01  6.10534E-01  5.82903E-01  4.04430E-01  6.42354E-01
  2.27203E-01  6.81158E-01  4.26099E-02  7.19598E-01 -1.83501E-01  7.32443E-01 -4.46341E-01  6.69202E-01
 -6.95547E-01  4.95941E-01 -8.64247E-01  2.26727E-01 -9.12217E-01 -7.94076E-02 -8.50833E-01 -3.54034E-01
 -7.31264E-01 -5.60984E-01 -6.05069E-01 -7.13142E-01 -4.87064E-01 -8.52328E-01 -3.48381E-01 -1.00816E+00
 -1.44596E-01 -1.16756E+00  1.42817E-01 -1.27833E+00  4.83546E-01 -1.28428E+00  8.11805E-01 -1.16553E+00
  1.06631E+00 -9.53414E-01  1.22709E+00 -7.08891E-01  1.32173E+00 -4.80646E-01  1.39696E+00 -2.74387E-01
  1.47742E+00 -5.61515E-02  1.54310E+00  2.13387E-01  1.54260E+00  5.40113E-01  1.43218E+00  8.82964E-01
  1.21074E+00  1.17632E+00  9.24339E-01  1.37166E+00  6.36587E-01  1.46723E+00  3.87056E-01  1.50374E+00
  1.68938E-01  1.52944E+00 -5.76725E-02  1.56144E+00 -3.27384E-01  1.57234E+00 -6.35479E-01  1.51230E+00
 -9.34306E-01  1.34949E+00 -1.16302E+00  1.09821E+00 -1.28831E+00  8.13096E-01 -1.32545E+00  5.53709E-01
 -1.32389E+00  3.45991E-01 -1.32855E+00  1.69526E-01 -1.34591E+00 -2.02059E-02 -1.34068E+00 -2.51744E-01
 -1.26514E+00 -5.10354E-01 -1.09882E+00 -7.44305E-01 -8.68212E-01 -9.00025E-01 -6.31496E-01 -9.59559E-01
 -4.39671E-01 -9.52061E-01 -3.03388E-01 -9.30714E-01 -1.90283E-01 -9.32622E-01 -5.45678E-02 -9.51960E-01
  1.23786E-01 -9.46565E-01  3.20055E-01 -8.72741E-01  4.80390E-01 -7.21726E-01  5.60210E-01 -5.30093E-01
  5.56316E-01 -3.56126E-01  5.08490E-01 -2.39977E-01  4.69449E-01 -1.77611E-01  4.65930E-01 -1.28034E-01
  4.80305E-01 -4.80966E-02  4.66458E-01  7.16759E-02  3.87706E-01  1.97422E-01  2.47896E-01  2.75772E-01
  9.20312E-02  2.73106E-01 -2.40925E-02  2.00551E-01 -7.23591E-02  1.05865E-01 -6.99473E-02  3.84268E-02
 -6.29958E-02  1.38371E-02 -8.89149E-02  4.80550E-03 -1.46033E-01 -3.49727E-02 -1.93609E-01 -1.32248E-01
 -1.82169E-01 -2.70321E-01 -9.11875E-02 -3.98003E-01  5.44102E-02 -4.64751E-01  2.01365E-01 -4.55477E-01
  3.05844E-01 -3.98912E-01  3.63331E-01 -3.43411E-01  4.08223E-01 -3.18734E-01  4.83681E-01 -3.12837E-01
  6.04822E-01 -2.81237E-01  7.43289E-01 -1.81781E-01  8.45005E-01 -8.43043E-03  8.67762E-01  2.01550E-01
  8.10341E-01  3.92453E-01  7.11315E-01  5.28296E-01  6.18649E-01  6.15554E-01  5.53242E-01  6.93520E-01
  4.94042E-01  7.99896E-01  3.95877E-01  9.37911E-01  2.26388E-01  1.07003E+00 -6.05434E-03  1.14311E+00
 -2.54654E-01  1.12607E+00 -4.65062E-01  1.03163E+00 -6.11575E-01  9.05846E-01 -7.11496E-01  7.93532E-01
 -8.07070E-01  7.05698E-01 -9.28976E-01  6.13645E-01 -1.06923E+00  4.73974E-01 -1.18411E+00  2.65362E-01
 -1.22496E+00  9.11533E-03 -1.17361E+00 -2.42196E-01 -1.05557E+00 -4.39519E-01 -9.21255E-01 -5.69369E-01
 -8.09406E-01 -6.59121E-01 -7.20354E-01 -7.51827E-01 -6.19237E-01 -8.69878E-01 -4.66475E-01 -9.95151E-01
 -2.52202E-01 -1.08074E+00 -8.43347E-03 -1.08535E+00  2.10380E-01 -1.00435E+00  3.63798E-01 -8.73968E-01
  4.51426E-01 -7.45534E-01  5.09073E-01 -6.49228E-01  5.78188E-01 -5.74673E-01  6.71899E-01 -4.82837E-01
  7.63452E-01 -3.39980E-01  8.05769E-01 -1.47717E-01  7.67282E-01  5.37169E-02  6.56868E-01  2.11580E-01
  5.19007E-01  2.96477E-01  4.02837E-01  3.20977E-01  3.28445E-01  3.27139E-01  2.75732E-01  3.52594E-01
  2.04027E-01  4.00978E-01  8.73137E-02  4.39129E-01 -6.18062E-02  4.23074E-01 -1.97720E-01  3.33036E-01
 -2.72829E-01  1.90897E-01 -2.70640E-01  4.68297E-02 -2.16041E-01 -5.48353E-02 -1.55184E-01 -1.04833E-01
 -1.20342E-01 -1.31402E-01 -1.06400E-01 -1.74403E-01 -7.66816E-02 -2.51003E-01  6.45076E-03 -3.39122E-01
  1.49568E-01 -3.91306E-01  3.19099E-01 -3.68602E-01  4.62212E-01 -2.68916E-01  5.41997E-01 -1.28494E-01
  5.60557E-01  4.46400E-03  5.52844E-01  1.04050E-01  5.56244E-01  1.82915E-01  5.79199E-01  2.78463E-01
  5.92808E-01  4.19680E-01  5.51811E-01  5.99999E-01  4.29102E-01  7.76936E-01  2.37657E-01  8.99000E-01
  2.32970E-02  9.39706E-01 -1.66252E-01  9.13249E-01 -3.12703E-01  8.60277E-01 -4.35477E-01  8.14825E-01
 -5.70984E-01  7.77620E-01 -7.38971E-01  7.16006E-01 -9.21739E-01  5.90477E-01 -1.07221E+00  3.87616E-01
 -1.14493E+00  1.34375E-01 -1.12683E+00 -1.17224E-01 -1.04451E+00 -3.23577E-01 -9.43048E-01 -4.76079E-01
 -8.52156E-01 -6.01051E-01 -7.65643E-01 -7.33482E-01 -6.49354E-01 -8.84843E-01 -4.71447E-01 -1.02962E+00
 -2.31789E-01 -1.12096E+00  3.20157E-02 -1.12364E+00  2.66772E-01 -1.03960E+00  4.37502E-01 -9.06701E-01
  5.47649E-01 -7.71754E-01  6.30766E-01 -6.58185E-01  7.20318E-01 -5.52603E-01  8.20754E-01 -4.20144E-01
  9.01855E-01 -2.36618E-01  9.20668E-01 -1.27923E-02  8.54363E-01  2.07845E-01  7.19084E-01  3.76372E-01
  5.60452E-01  4.70347E-01  4.22811E-01  5.06436E-01  3.20299E-01  5.24467E-01  2.31346E-01  5.55169E-01
  1.20407E-01  5.96108E-01 -2.98732E-02  6.13972E-01 -2.00676E-01  5.71320E-01 -3.46997E-01  4.57373E-01
 -4.28152E-01  2.99360E-01 -4.35817E-01  1.45704E-01 -3.98481E-01  3.36161E-02 -3.59063E-01 -3.45856E-02
 -3.42649E-01 -8.87795E-02 -3.38729E-01 -1.64288E-01 -3.11173E-01 -2.71548E-01 -2.28196E-01 -3.85283E-01
 -8.94113E-02 -4.61389E-01  7.06304E-02 -4.68742E-01  2.05195E-01 -4.11826E-01  2.87271E-01 -3.27085E-01
  3.26610E-01 -2.55783E-01  3.59175E-01 -2.13889E-01  4.17140E-01 -1.81684E-01  5.02246E-01 -1.20785E-01
  5.82677E-01 -5.55083E-03  6.15774E-01  1.55017E-01  5.79313E-01  3.21474E-01  4.87689E-01  4.51038E-01
  3.80793E-01  5.27088E-01  2.94080E-01  5.68781E-01  2.32526E-01  6.13638E-01  1.68142E-01  6.86367E-01
  6.28723E-02  7.77616E-01 -1.00504E-01  8.48737E-01 -3.02873E-01  8.58954E-01 -5.00346E-01  7.94418E-01
 -6.54097E-01  6.77266E-01 -7.55898E-01  5.48013E-01 -8.30157E-01  4.34779E-01 -9.11084E-01  3.32770E-01
 -1.01250E+00  2.09559E-01 -1.11329E+00  3.21741E-02 -1.16970E+00 -2.04562E-01 -1.14525E+00 -4.69900E-01
 -1.03588E+00 -7.15407E-01 -8.71510E-01 -9.05860E-01 -6.93067E-01 -1.03960E+00 -5.22643E-01 -1.14323E+00
 -3.49380E-01 -1.24506E+00 -1.41758E-01 -1.34776E+00  1.23158E-01 -1.42127E+00  4.35827E-01 -1.42155E+00
  7.53984E-01 -1.32121E+00  1.02644E+00 -1.12921E+00  1.22325E+00 -8.84702E-01  1.34984E+00 -6.30074E-01
  1.43486E+00 -3.83521E-01  1.50158E+00 -1.31778E-01  1.54483E+00  1.51763E-01  1.53130E+00  4.77659E-01
  1.42325E+00  8.22432E-01  1.20771E+00  1.13604E+00  9.09266E-01  1.36958E+00  5.76675E-01  1.50286E+00
  2.53348E-01  1.55132E+00 -4.62104E-02  1.54788E+00 -3.36672E-01  1.51373E+00 -6.39239E-01  1.44052E+00
 -9.53859E-01  1.29761E+00 -1.24794E+00  1.05885E+00 -1.47069E+00  7.28332E-01 -1.58267E+00  3.45591E-01
 -1.57881E+00 -3.41914E-02 -1.48773E+00 -3.70340E-01 -1.34841E+00 -6.55007E-01 -1.18193E+00 -9.06484E-01
 -9.79682E-01 -1.14332E+00 -7.16729E-01 -1.35953E+00 -3.79780E-01 -1.52019E+00  1.18782E-02 -1.58127E+00
  4.08876E-01 -1.51890E+00  7.56374E-01 -1.34622E+00  1.02280E+00 -1.10517E+00  1.21168E+00 -8.39353E-01
  1.34825E+00 -5.68399E-01  1.45170E+00 -2.82694E-01  1.51451E+00  3.80281E-02  1.50471E+00  3.97041E-01
  1.38963E+00  7.65487E-01  1.16294E+00  1.09186E+00  8.54433E-01  1.32950E+00  5.14982E-01  1.46188E+00
  1.87518E-01  1.50708E+00 -1.14368E-01  1.49847E+00 -4.04745E-01  1.45659E+00 -7.02525E-01  1.37360E+00
 -1.00550E+00  1.22192E+00 -1.28142E+00  9.80249E-01 -1.48342E+00  6.57000E-01 -1.57837E+00  2.92832E-01
 -1.56706E+00 -5.99505E-02 -1.48112E+00 -3.66118E-01 -1.35911E+00 -6.23174E-01 -1.21983E+00 -8.52719E-01
 -1.05279E+00 -1.07462E+00 -8.32670E-01 -1.28400E+00 -5.46412E-01 -1.44880E+00 -2.11826E-01 -1.52983E+00
