 $NMID ID='Lac', FMTDAT='(8E13.5)'
 TRAMP=1., VOLUME=1. $END
  3.00444E+00 -7.32320E-03  2.46977E+00  1.55383E+00  1.12847E+00  2.46839E+00 -4.49748E-01  2.39100E+00
 -1.61465E+00  1.40217E+00 -1.91468E+00 -4.34083E-02 -1.27522E+00 -1.32645E+00 -5.84418E-03 -1.92737E+00
  1.35079E+00 -1.62801E+00  2.24893E+00 -5.74574E-01  2.34827E+00  8.05732E-01  1.62532E+00  1.98394E+00
  3.61435E-01  2.52763E+00 -9.72997E-01  2.24983E+00 -1.89078E+00  1.26677E+00 -2.06062E+00 -4.68668E-02
 -1.42801E+00 -1.19036E+00 -2.43631E-01 -1.71846E+00  1.01880E+00 -1.41418E+00  1.83771E+00 -3.87080E-01
  1.85370E+00  9.52342E-01  1.02934E+00  2.04745E+00 -3.18271E-01  2.42589E+00 -1.63996E+00  1.90812E+00
 -2.38767E+00  6.95202E-01 -2.25551E+00 -7.12567E-01 -1.31554E+00 -1.73431E+00  1.73766E-02 -1.96402E+00
  1.17433E+00 -1.34326E+00  1.68330E+00 -1.73352E-01  1.36496E+00  1.03091E+00  3.89284E-01  1.76962E+00
 -8.19374E-01  1.76108E+00 -1.77206E+00  1.03650E+00 -2.11022E+00 -9.90278E-02 -1.72903E+00 -1.20497E+00
 -7.94469E-01 -1.87690E+00  3.34997E-01 -1.88699E+00  1.24348E+00 -1.25329E+00  1.60286E+00 -2.25462E-01
  1.28641E+00  8.03621E-01  4.17910E-01  1.43529E+00 -6.63741E-01  1.41230E+00 -1.52274E+00  7.26007E-01
 -1.79446E+00 -3.63911E-01 -1.34120E+00 -1.41890E+00 -3.25056E-01 -1.99687E+00  8.46120E-01 -1.84385E+00
  1.68771E+00 -1.01385E+00  1.85112E+00  1.46147E-01  1.28095E+00  1.14651E+00  2.39270E-01  1.57302E+00
 -8.15918E-01  1.26900E+00 -1.43818E+00  3.95724E-01 -1.38580E+00 -6.52820E-01 -7.12144E-01 -1.43259E+00
  2.79009E-01 -1.63896E+00  1.17927E+00 -1.21865E+00  1.64732E+00 -3.66372E-01  1.53239E+00  5.75107E-01
  9.09850E-01  1.25648E+00  3.22234E-02  1.44609E+00 -7.72041E-01  1.09911E+00 -1.21292E+00  3.60981E-01
 -1.13404E+00 -4.86900E-01 -5.65930E-01 -1.12214E+00  2.78229E-01 -1.29339E+00  1.07051E+00 -9.17450E-01
  1.48711E+00 -1.24389E-01  1.34055E+00  7.78065E-01  6.69699E-01  1.42046E+00 -2.61012E-01  1.52782E+00
 -1.06566E+00  1.04716E+00 -1.40496E+00  1.80935E-01 -1.14101E+00 -6.97765E-01 -4.01760E-01 -1.21283E+00
  4.79265E-01 -1.15537E+00  1.11839E+00 -5.73225E-01  1.25483E+00  2.61755E-01  8.57440E-01  9.86827E-01
  1.20045E-01  1.31163E+00 -6.41384E-01  1.13324E+00 -1.13086E+00  5.57521E-01 -1.18614E+00 -1.67940E-01
 -8.22274E-01 -7.65372E-01 -2.02640E-01 -1.03005E+00  4.34945E-01 -8.90444E-01  8.62749E-01 -4.17056E-01
  9.33339E-01  2.09918E-01  6.23142E-01  7.59827E-01  4.24792E-02  1.02497E+00 -5.94017E-01  8.93435E-01
 -1.03731E+00  3.99378E-01 -1.09903E+00 -2.75086E-01 -7.36930E-01 -8.60390E-01 -8.76282E-02 -1.10869E+00
  5.79918E-01 -9.07155E-01  9.79128E-01 -3.38458E-01  9.37950E-01  3.48740E-01  4.81883E-01  8.51792E-01
 -1.77328E-01  9.55157E-01 -7.43541E-01  6.29034E-01 -9.76165E-01  3.57926E-02 -7.96461E-01 -5.55696E-01
 -3.09588E-01 -8.99334E-01  2.60517E-01 -8.77430E-01  6.81465E-01 -5.34936E-01  8.09303E-01 -3.73678E-02
  6.30623E-01  4.14041E-01  2.44113E-01  6.63344E-01 -1.94418E-01  6.45030E-01 -5.31430E-01  3.88078E-01
 -6.59052E-01 -7.09239E-03 -5.38998E-01 -4.02501E-01 -2.11178E-01 -6.59929E-01  2.12847E-01 -6.80927E-01
  5.77631E-01 -4.44667E-01  7.35465E-01 -2.84136E-02  6.09209E-01  4.08337E-01  2.37432E-01  6.82337E-01
 -2.28504E-01  6.68733E-01 -5.85147E-01  3.66751E-01 -6.71842E-01 -9.05708E-02 -4.51466E-01 -4.95158E-01
 -3.12483E-02 -6.64574E-01  3.90662E-01 -5.31421E-01  6.24870E-01 -1.72638E-01  5.82036E-01  2.36092E-01
  3.07316E-01  5.12841E-01 -5.59090E-02  5.56058E-01 -3.46163E-01  3.80392E-01 -4.59900E-01  9.03120E-02
 -3.84945E-01 -1.83765E-01 -1.83709E-01 -3.46035E-01  5.19178E-02 -3.62964E-01  2.42202E-01 -2.55130E-01
  3.38688E-01 -7.19641E-02  3.23285E-01  1.29075E-01  2.02566E-01  2.91227E-01  8.05428E-03  3.63211E-01
 -2.01339E-01  3.11602E-01 -3.48239E-01  1.41012E-01 -3.64883E-01 -9.26467E-02 -2.30625E-01 -2.93899E-01
  5.34372E-03 -3.68442E-01  2.37556E-01 -2.74381E-01  3.54275E-01 -5.21334E-02  2.98168E-01  1.90343E-01
  1.00503E-01  3.33386E-01 -1.34653E-01  3.11118E-01 -2.88779E-01  1.46694E-01 -2.94670E-01 -6.46389E-02
 -1.69455E-01 -2.13462E-01  3.78903E-03 -2.38072E-01  1.31072E-01 -1.52280E-01  1.61980E-01 -2.52065E-02
  1.09839E-01  6.89007E-02  2.94278E-02  9.51175E-02 -2.69150E-02  6.87173E-02 -4.19982E-02  3.07994E-02
 -3.46188E-02  1.16630E-02 -3.34734E-02  1.05934E-02 -4.84183E-02  4.84218E-03 -6.26013E-02 -2.33745E-02
 -5.01526E-02 -6.63696E-02 -2.84226E-03 -9.45685E-02  5.78261E-02 -8.10317E-02  9.41859E-02 -2.61347E-02
  8.13194E-02  3.88288E-02  2.78665E-02  7.33816E-02 -2.88896E-02  5.84140E-02 -5.09444E-02  1.11391E-02
 -2.89812E-02 -2.83166E-02  1.03891E-02 -2.90777E-02  2.64275E-02  4.74935E-03 -1.08860E-03  3.60774E-02
 -5.18710E-02  2.47761E-02 -7.73431E-02 -3.66911E-02 -3.82277E-02 -1.10403E-01  5.99929E-02 -1.35688E-01
  1.61964E-01 -7.35514E-02  1.95089E-01  5.89158E-02  1.19563E-01  1.90988E-01 -3.88935E-02  2.39424E-01
 -1.98117E-01  1.62404E-01 -2.66835E-01 -9.88789E-03 -2.00324E-01 -1.89421E-01 -2.84021E-02 -2.80884E-01
  1.61811E-01 -2.36434E-01  2.76201E-01 -8.06034E-02  2.64520E-01  1.07826E-01  1.41585E-01  2.42135E-01
 -2.95955E-02  2.71481E-01 -1.76450E-01  1.97575E-01 -2.50481E-01  6.09250E-02 -2.38430E-01 -8.68118E-02
 -1.53005E-01 -2.03413E-01 -1.88347E-02 -2.60638E-01  1.32724E-01 -2.40161E-01  2.60371E-01 -1.34801E-01
  3.14023E-01  3.97155E-02  2.51840E-01  2.32754E-01  6.95247E-02  3.64460E-01 -1.78161E-01  3.57872E-01
 -3.86280E-01  1.85182E-01 -4.44972E-01 -1.00943E-01 -3.00868E-01 -3.77657E-01  2.10184E-03 -5.07224E-01
  3.32367E-01 -4.10592E-01  5.32039E-01 -1.16620E-01  4.98534E-01  2.44877E-01  2.40369E-01  5.05858E-01
 -1.25264E-01  5.44739E-01 -4.31762E-01  3.46146E-01 -5.45298E-01  4.33261E-03 -4.25230E-01 -3.27862E-01
 -1.34006E-01 -5.12989E-01  2.01457E-01 -4.86212E-01  4.50044E-01 -2.71566E-01  5.26384E-01  4.09812E-02
  4.12452E-01  3.37253E-01  1.52387E-01  5.17469E-01 -1.66945E-01  5.21380E-01 -4.39510E-01  3.41485E-01
 -5.66308E-01  2.82029E-02 -4.86117E-01 -3.15650E-01 -2.05919E-01 -5.59201E-01  1.84620E-01 -5.89466E-01
  5.32545E-01 -3.65853E-01  6.79121E-01  4.46756E-02  5.35423E-01  4.79115E-01  1.37399E-01  7.42830E-01
 -3.55296E-01  7.01569E-01 -7.25299E-01  3.54112E-01 -7.99941E-01 -1.56860E-01 -5.37656E-01 -6.06838E-01
 -5.15700E-02 -7.95228E-01  4.43382E-01 -6.40420E-01  7.32037E-01 -2.15585E-01  6.96599E-01  2.90466E-01
  3.62918E-01  6.63263E-01 -1.21481E-01  7.56064E-01 -5.58977E-01  5.43711E-01 -7.84176E-01  1.19842E-01
 -7.21438E-01 -3.50683E-01 -4.01640E-01 -6.96562E-01  5.74129E-02 -7.96626E-01  4.92684E-01 -6.14842E-01
  7.46535E-01 -2.10663E-01  7.17058E-01  2.75414E-01  3.98125E-01  6.61633E-01 -1.05436E-01  7.86338E-01
 -6.02387E-01  5.75258E-01 -8.82149E-01  8.65892E-02 -8.04746E-01 -4.94856E-01 -3.73895E-01 -9.24526E-01
  2.48006E-01 -1.00437E+00  8.00592E-01 -6.79866E-01  1.04034E+00 -7.64085E-02  8.55565E-01  5.49715E-01
  3.22938E-01  9.26231E-01 -3.25200E-01  8.90259E-01 -8.07272E-01  4.61960E-01 -9.19548E-01 -1.68548E-01
 -6.22370E-01 -7.31098E-01 -4.81898E-02 -9.95181E-01  5.64900E-01 -8.62771E-01  9.76620E-01 -3.97249E-01
  1.03707E+00  2.14494E-01  7.34377E-01  7.41261E-01  1.88413E-01  9.92574E-01 -3.97746E-01  8.81192E-01
 -8.08160E-01  4.49034E-01 -8.86154E-01 -1.46330E-01 -5.90548E-01 -6.80980E-01 -1.90799E-02 -9.40116E-01
  6.14823E-01 -8.00352E-01  1.05411E+00 -2.89279E-01  1.10020E+00  4.08434E-01  7.05155E-01  1.01309E+00
  8.25513E-03  1.26394E+00 -7.10107E-01  1.03807E+00 -1.14548E+00  4.16110E-01 -1.10674E+00 -3.43148E-01
 -6.07541E-01 -9.13795E-01  1.35526E-01 -1.04908E+00  7.99178E-01 -6.92700E-01  1.09811E+00 -1.75999E-03
  9.08652E-01  7.27317E-01  3.15333E-01  1.19121E+00 -4.35185E-01  1.20688E+00 -1.04444E+00  7.78589E-01
 -1.28339E+00  8.34255E-02 -1.07488E+00 -6.08571E-01 -5.11673E-01 -1.04031E+00  1.86574E-01 -1.05884E+00
  7.55391E-01 -6.64569E-01  9.77875E-01 -8.42489E-03  7.60926E-01  6.59190E-01  1.73385E-01  1.07408E+00
 -5.69179E-01  1.05533E+00 -1.17576E+00  5.81928E-01 -1.38989E+00 -1.84213E-01 -1.09949E+00 -9.48433E-01
 -3.97631E-01 -1.39733E+00  4.41418E-01 -1.33387E+00  1.07089E+00 -7.72581E-01  1.22210E+00  5.50572E-02
  8.27940E-01  7.95172E-01  5.84083E-02  1.12646E+00 -7.52149E-01  9.03634E-01 -1.25289E+00  2.21255E-01
 -1.22973E+00 -6.31217E-01 -6.93346E-01 -1.29919E+00  1.34315E-01 -1.51487E+00  9.22038E-01 -1.20312E+00
  1.36859E+00 -5.00471E-01  1.31845E+00  3.11396E-01  8.11716E-01  9.21657E-01  5.80109E-02  1.10681E+00
 -6.47111E-01  8.07296E-01 -1.02992E+00  1.43806E-01 -9.35457E-01 -6.27083E-01 -3.84980E-01 -1.20285E+00
  4.25139E-01 -1.34428E+00  1.18763E+00 -9.69543E-01  1.59666E+00 -1.97334E-01  1.47150E+00  6.85540E-01
  8.41364E-01  1.33018E+00 -5.14240E-02  1.46933E+00 -8.42180E-01  1.03841E+00 -1.19670E+00  2.15123E-01
 -9.60046E-01 -6.48193E-01 -2.30750E-01 -1.17493E+00  6.77975E-01 -1.13012E+00  1.37467E+00 -5.24501E-01
  1.56064E+00  3.91921E-01  1.15663E+00  1.24207E+00  3.29539E-01  1.68537E+00 -5.87106E-01  1.55774E+00
 -1.23710E+00  9.29497E-01 -1.38435E+00  6.44028E-02 -9.97357E-01 -6.93881E-01 -2.49631E-01 -1.05627E+00
  5.54742E-01 -8.92485E-01  1.09661E+00 -2.72404E-01  1.15710E+00  5.63412E-01  6.96382E-01  1.29082E+00
 -1.28364E-01  1.61891E+00 -1.01415E+00  1.39979E+00 -1.62061E+00  6.92949E-01 -1.70199E+00 -2.45219E-01
 -1.21336E+00 -1.05211E+00 -3.42745E-01 -1.40267E+00  5.54012E-01 -1.14969E+00  1.09731E+00 -3.97114E-01
  1.04801E+00  5.33606E-01  4.17181E-01  1.23666E+00 -5.32748E-01  1.39790E+00 -1.39983E+00  9.33403E-01
 -1.81738E+00  2.59595E-02 -1.61148E+00 -9.56847E-01 -8.70379E-01 -1.62327E+00  1.01410E-01 -1.72220E+00
  9.17586E-01 -1.24029E+00  1.26981E+00 -3.95398E-01  1.04499E+00  4.61837E-01  3.58201E-01  9.90488E-01
 -5.02531E-01  9.87460E-01 -1.19033E+00  4.56728E-01 -1.42806E+00 -3.98511E-01 -1.10800E+00 -1.25262E+00
 -3.31733E-01 -1.77593E+00  6.22914E-01 -1.75657E+00  1.40016E+00 -1.18490E+00  1.70024E+00 -2.67358E-01
