 $NMID ID=Mac'', FMTDAT='(8E13.5)'
 TRAMP=1., VOLUME=1. $END
  2.00413E+01 -3.08087E-16  3.47734E+01  1.80639E+01  2.12390E+01  3.03467E+01  4.21295E+00  3.36745E+01
 -1.08767E+01  2.80563E+01 -1.98098E+01  1.64480E+01 -2.09394E+01  3.44199E+00 -1.54821E+01 -6.60672E+00
 -6.67001E+00 -1.10776E+01  1.69473E+00 -9.78765E+00  6.75955E+00 -4.60475E+00  7.47864E+00  1.59714E+00
  4.65032E+00  6.23615E+00  2.08247E-01  7.94464E+00 -3.78860E+00  6.82641E+00 -6.01492E+00  4.06687E+00
 -6.24702E+00  1.16350E+00 -5.17087E+00 -7.98803E-01 -3.82368E+00 -1.53573E+00 -2.99462E+00 -1.48910E+00
 -2.86611E+00 -1.40354E+00 -3.03763E+00 -1.82624E+00 -2.87585E+00 -2.78742E+00 -1.95207E+00 -3.81254E+00
 -3.43879E-01 -4.23443E+00  1.37684E+00 -3.61435E+00  2.44259E+00 -2.04204E+00  2.31445E+00 -1.35432E-01
  9.98426E-01  1.24377E+00 -9.19797E-01  1.42709E+00 -2.54492E+00  2.78033E-01 -3.10341E+00 -1.73068E+00
 -2.30435E+00 -3.75292E+00 -4.55730E-01 -4.97842E+00  1.72913E+00 -5.00559E+00  3.50620E+00 -3.97143E+00
  4.44952E+00 -2.40696E+00  4.59080E+00 -8.98724E-01  4.29220E+00  2.20147E-01  3.95067E+00  9.91782E-01
  3.72258E+00  1.70441E+00  3.43914E+00  2.61662E+00  2.75474E+00  3.71213E+00  1.42585E+00  4.64070E+00
 -4.45146E-01  4.90078E+00 -2.37196E+00  4.13801E+00 -3.67480E+00  2.40944E+00 -3.82309E+00  2.36361E-01
 -2.72014E+00 -1.58933E+00 -8.11057E-01 -2.35472E+00  1.08724E+00 -1.76833E+00  2.13280E+00 -1.17547E-01
  1.83490E+00  1.83601E+00  2.83176E-01  3.17970E+00 -1.88179E+00  3.24297E+00 -3.72755E+00  1.89346E+00
 -4.43524E+00 -3.96446E-01 -3.64309E+00 -2.74391E+00 -1.60434E+00 -4.22518E+00  9.16628E-01 -4.26197E+00
  2.96258E+00 -2.86187E+00  3.79220E+00 -6.10884E-01  3.18205E+00  1.59336E+00  1.50271E+00  2.92681E+00
 -4.75088E-01  2.99357E+00 -1.94040E+00  1.96528E+00 -2.41135E+00  4.55442E-01 -1.92020E+00 -8.07812E-01
 -9.39758E-01 -1.34047E+00 -9.58332E-02 -1.11667E+00  1.82990E-01 -5.25744E-01 -1.19369E-01 -1.12247E-01
 -6.29311E-01 -2.42049E-01 -8.30419E-01 -8.85890E-01 -3.88290E-01 -1.63816E+00  6.32793E-01 -1.95534E+00
  1.78087E+00 -1.47977E+00  2.45316E+00 -2.69183E-01  2.22153E+00  1.20448E+00  1.08210E+00  2.27991E+00
 -5.25166E-01  2.43568E+00 -1.91146E+00  1.55786E+00 -2.46787E+00  2.36307E-03 -1.94920E+00 -1.56532E+00
 -5.81504E-01 -2.47812E+00  1.04376E+00 -2.36075E+00  2.24371E+00 -1.28612E+00  2.53310E+00  2.74015E-01
  1.82231E+00  1.66319E+00  4.38153E-01  2.31867E+00 -1.03310E+00  1.99898E+00 -1.99125E+00  8.67580E-01
 -2.06514E+00 -5.95126E-01 -1.25375E+00 -1.79617E+00  9.62323E-02 -2.27555E+00  1.44856E+00 -1.88285E+00
  2.30592E+00 -8.17573E-01  2.41255E+00  4.81298E-01  1.83274E+00  1.54163E+00  8.87168E-01  2.06232E+00
 -2.73602E-02  2.02254E+00 -6.36786E-01  1.63900E+00 -9.00288E-01  1.21117E+00 -9.84061E-01  9.38907E-01
 -1.11459E+00  8.13240E-01 -1.40834E+00  6.53113E-01 -1.77401E+00  2.46064E-01 -1.95964E+00 -4.75623E-01
 -1.70941E+00 -1.35234E+00 -9.40283E-01 -2.04887E+00  1.65973E-01 -2.22847E+00  1.22138E+00 -1.74396E+00
  1.81421E+00 -7.40156E-01  1.71179E+00  3.95070E-01  9.82453E-01  1.21229E+00 -4.06720E-02  1.40468E+00
 -9.12273E-01  9.48101E-01 -1.28521E+00  9.57231E-02 -1.05269E+00 -7.55532E-01 -3.75072E-01 -1.24948E+00
  4.22316E-01 -1.22035E+00  1.00203E+00 -7.35119E-01  1.15968E+00 -4.14071E-02  8.85840E-01  5.63697E-01
  3.46402E-01  8.58133E-01 -2.10897E-01  7.73744E-01 -5.65404E-01  4.03239E-01 -6.09343E-01 -5.69760E-02
 -3.80618E-01 -4.00047E-01 -3.21031E-02 -4.98905E-01  2.46031E-01 -3.58133E-01  3.21223E-01 -1.05757E-01
  1.86298E-01  7.61669E-02 -3.31729E-02  5.14344E-02 -1.43890E-01 -1.87032E-01  5.98180E-03 -4.97861E-01
  4.27781E-01 -6.55460E-01  9.60968E-01 -4.70539E-01  1.33601E+00  9.20978E-02  1.30957E+00  8.69536E-01
  7.95175E-01  1.55937E+00 -7.26111E-02  1.85941E+00 -9.88820E-01  1.61891E+00 -1.61680E+00  9.13308E-01
 -1.74622E+00  9.62941E-03 -1.37901E+00 -7.60386E-01 -7.14718E-01 -1.15420E+00 -4.11809E-02 -1.11142E+00
  4.05841E-01 -7.56867E-01  5.32982E-01 -3.07090E-01  3.97150E-01  3.97508E-02  1.42586E-01  1.84807E-01
 -8.65252E-02  1.40074E-01 -2.05678E-01 -1.45553E-02 -2.00436E-01 -1.90024E-01 -9.91928E-02 -3.25711E-01
  6.02781E-02 -3.93466E-01  2.45948E-01 -3.81025E-01  4.27048E-01 -2.79526E-01  5.63015E-01 -8.72828E-02
  6.05784E-01  1.76338E-01  5.16460E-01  4.61901E-01  2.87248E-01  6.98119E-01 -4.86423E-02  8.15663E-01
 -4.25305E-01  7.71223E-01 -7.65159E-01  5.58090E-01 -9.97125E-01  2.04074E-01 -1.06729E+00 -2.38827E-01
 -9.42000E-01 -6.99784E-01 -6.14779E-01 -1.09128E+00 -1.21174E-01 -1.32005E+00  4.52316E-01 -1.30611E+00
  9.74821E-01 -1.02408E+00  1.30820E+00 -5.26256E-01  1.36297E+00  5.69061E-02  1.14583E+00  5.62182E-01
  7.56564E-01  8.64006E-01  3.47593E-01  9.29017E-01  4.59347E-02  8.25494E-01 -1.06479E-01  6.76285E-01
 -1.62364E-01  5.83411E-01 -2.21105E-01  5.69293E-01 -3.54507E-01  5.71882E-01 -5.54345E-01  4.96599E-01
 -7.35104E-01  2.88584E-01 -7.90806E-01 -2.06617E-02 -6.67292E-01 -3.25002E-01 -4.02931E-01 -5.04466E-01
 -1.11035E-01 -4.97814E-01  8.39509E-02 -3.37684E-01  1.15065E-01 -1.30490E-01  5.71153E-03  5.34541E-03
 -1.51942E-01  4.08769E-03 -2.53371E-01 -1.20140E-01 -2.37494E-01 -2.92427E-01 -1.08989E-01 -4.25488E-01
  7.77282E-02 -4.64005E-01  2.56122E-01 -4.01441E-01  3.78818E-01 -2.67515E-01  4.28063E-01 -1.02971E-01
  4.07012E-01  5.79969E-02  3.27309E-01  1.91283E-01  2.04596E-01  2.77674E-01  6.16565E-02  3.02769E-01
 -7.06997E-02  2.63146E-01 -1.62265E-01  1.74577E-01 -1.98453E-01  6.86552E-02 -1.89968E-01 -2.33210E-02
 -1.63507E-01 -9.06242E-02 -1.39242E-01 -1.48870E-01 -1.08957E-01 -2.23576E-01 -3.70954E-02 -3.20098E-01
  1.12243E-01 -4.02837E-01  3.36728E-01 -4.04069E-01  5.75192E-01 -2.64441E-01  7.26223E-01  1.94903E-02
  6.99799E-01  3.73983E-01  4.75000E-01  6.73006E-01  1.22520E-01  8.00974E-01 -2.24274E-01  7.16381E-01
 -4.37978E-01  4.76793E-01 -4.64407E-01  2.07605E-01 -3.47311E-01  3.21327E-02 -1.97433E-01  5.47491E-03
 -1.24680E-01  9.12214E-02 -1.76210E-01  1.92082E-01 -3.17900E-01  2.13398E-01 -4.63718E-01  1.16346E-01
 -5.32105E-01 -6.74869E-02 -4.90230E-01 -2.65617E-01 -3.61597E-01 -4.11058E-01 -1.99606E-01 -4.76312E-01
 -5.03372E-02 -4.74568E-01  6.86985E-02 -4.35283E-01  1.63666E-01 -3.78366E-01  2.42665E-01 -3.04693E-01
  3.00037E-01 -2.07811E-01  3.17980E-01 -9.24447E-02  2.84363E-01  1.84403E-02  2.06848E-01  9.46564E-02
  1.13696E-01  1.17779E-01  3.73649E-02  9.35460E-02 -4.75215E-03  4.54166E-02 -1.61807E-02 -3.38536E-03
 -1.07279E-02 -4.49655E-02  5.50482E-03 -8.53579E-02  4.17309E-02 -1.28409E-01  1.11924E-01 -1.60483E-01
  2.13275E-01 -1.51121E-01  3.13853E-01 -7.49286E-02  3.63424E-01  6.28445E-02  3.24513E-01  2.16788E-01
  2.02833E-01  3.21456E-01  5.30051E-02  3.31752E-01 -5.09909E-02  2.55489E-01 -6.23602E-02  1.54642E-01
  4.55732E-03  1.07978E-01  7.85151E-02  1.59414E-01  7.56162E-02  2.84510E-01 -4.48839E-02  4.00540E-01
 -2.49462E-01  4.16601E-01 -4.45449E-01  2.91468E-01 -5.35078E-01  6.22450E-02 -4.74018E-01 -1.74839E-01
 -2.96609E-01 -3.20267E-01 -9.42684E-02 -3.27844E-01  3.98633E-02 -2.26331E-01  6.24893E-02 -9.61291E-02
 -2.25641E-03 -1.78335E-02 -8.60641E-02 -2.74037E-02 -1.22419E-01 -1.02674E-01 -8.38881E-02 -1.86122E-01
  9.51705E-03 -2.23540E-01  1.10575E-01 -1.92462E-01  1.74885E-01 -1.07093E-01  1.80590E-01 -1.75447E-03
  1.30040E-01  8.90615E-02  3.95030E-02  1.41070E-01 -6.91791E-02  1.40476E-01 -1.70267E-01  8.04612E-02
 -2.32555E-01 -3.41943E-02 -2.24696E-01 -1.80045E-01 -1.30826E-01 -3.11981E-01  3.18576E-02 -3.76725E-01
  2.10896E-01 -3.39225E-01  3.37883E-01 -2.07774E-01  3.64906E-01 -3.63692E-02  2.93316E-01  1.00513E-01
  1.76264E-01  1.50702E-01  8.72257E-02  1.15450E-01  7.37211E-02  4.80892E-02  1.27937E-01  1.83108E-02
  1.91872E-01  6.44630E-02  1.99192E-01  1.66522E-01  1.22044E-01  2.59055E-01 -5.86777E-03  2.76831E-01
 -1.10221E-01  2.02270E-01 -1.26069E-01  8.19001E-02 -4.45374E-02 -9.00021E-04  7.62011E-02  1.96916E-02
  1.44032E-01  1.46551E-01  8.97093E-02  3.12859E-01 -8.90211E-02  4.18755E-01 -3.23313E-01  3.88939E-01
 -5.10400E-01  2.14059E-01 -5.68732E-01 -4.51267E-02 -4.75791E-01 -2.93071E-01 -2.73259E-01 -4.46875E-01
 -3.75521E-02 -4.70670E-01  1.57970E-01 -3.80205E-01  2.69433E-01 -2.22768E-01  2.87263E-01 -5.16012E-02
  2.26424E-01  9.07956E-02  1.13691E-01  1.76574E-01 -1.76910E-02  1.91975E-01 -1.30856E-01  1.38335E-01
 -1.91833E-01  3.65517E-02 -1.83513E-01 -7.38746E-02 -1.17570E-01 -1.48641E-01 -3.42523E-02 -1.61344E-01
  1.77385E-02 -1.22247E-01  1.18470E-02 -7.54627E-02 -3.53490E-02 -7.26560E-02 -7.00009E-02 -1.36460E-01
 -3.46609E-02 -2.38555E-01  9.01064E-02 -3.10878E-01  2.64356E-01 -2.86402E-01  4.05763E-01 -1.45157E-01
  4.36320E-01  6.59194E-02  3.32257E-01  2.54167E-01  1.42390E-01  3.34080E-01 -3.72858E-02  2.77918E-01
 -1.18912E-01  1.33247E-01 -7.36205E-02 -6.17229E-03  5.39709E-02 -5.50137E-02  1.74738E-01  1.48758E-02
  2.08475E-01  1.62365E-01  1.27765E-01  3.05671E-01 -3.26655E-02  3.71317E-01 -2.02794E-01  3.31262E-01
 -3.18514E-01  2.09807E-01 -3.52408E-01  5.96481E-02 -3.15451E-01 -7.06282E-02 -2.38847E-01 -1.57059E-01
 -1.50671E-01 -1.99446E-01 -6.61163E-02 -2.06983E-01  8.02801E-03 -1.86235E-01  6.36943E-02 -1.40803E-01
  8.94283E-02 -7.93151E-02  7.87505E-02 -2.07633E-02  4.06691E-02  1.22037E-02  2.30327E-04  8.36136E-03
 -1.54541E-02 -2.09182E-02  3.21511E-03 -4.63027E-02  3.87088E-02 -4.06550E-02  5.68639E-02 -8.69917E-04
  3.22700E-02  4.60757E-02 -2.94106E-02  5.98719E-02 -9.01217E-02  1.69129E-02 -1.02948E-01 -6.82798E-02
 -4.55264E-02 -1.47224E-01  6.01570E-02 -1.67100E-01  1.57623E-01 -1.06590E-01  1.90393E-01  7.03452E-03
  1.38692E-01  1.12858E-01  3.29696E-02  1.54184E-01 -6.54161E-02  1.14185E-01 -1.03631E-01  2.50807E-02
 -6.99487E-02 -5.49940E-02  2.26636E-03 -8.09842E-02  6.08087E-02 -4.87351E-02  7.16864E-02  7.09392E-03
  4.05010E-02  4.18430E-02  3.96624E-03  3.46101E-02 -9.83087E-04  2.49296E-03  3.29174E-02 -1.44233E-02
