 $NMID ID='NAA', FMTDAT='(8E13.5)'
 TRAMP=1., VOLUME=1. $END
  5.10530E+00  8.31638E-02  4.53334E+00  2.17914E+00  3.05849E+00  3.73589E+00  1.07242E+00  4.39880E+00
 -9.26798E-01  4.06495E+00 -2.48100E+00  2.88375E+00 -3.28067E+00  1.18409E+00 -3.21021E+00 -6.28282E-01
 -2.33913E+00 -2.16217E+00 -8.86504E-01 -3.10460E+00  8.21377E-01 -3.26425E+00  2.40079E+00 -2.60665E+00
  3.47949E+00 -1.27805E+00  3.78670E+00  4.03318E-01  3.24117E+00  2.01043E+00  1.99611E+00  3.12319E+00
  4.07099E-01  3.46103E+00 -1.07750E+00  2.97666E+00 -2.06345E+00  1.86667E+00 -2.33312E+00  4.93319E-01
 -1.89465E+00 -7.45128E-01 -9.47453E-01 -1.53736E+00  2.05973E-01 -1.72949E+00  1.25520E+00 -1.33221E+00
  1.94964E+00 -4.85716E-01  2.13308E+00  5.86612E-01  1.75990E+00  1.61951E+00  9.06530E-01  2.34693E+00
 -2.25930E-01  2.55574E+00 -1.33797E+00  2.15119E+00 -2.10197E+00  1.21008E+00 -2.26629E+00 -1.42412E-02
 -1.75357E+00 -1.15620E+00 -7.04207E-01 -1.85770E+00  5.63424E-01 -1.89521E+00  1.66300E+00 -1.25738E+00
  2.27205E+00 -1.39987E-01  2.22864E+00  1.13288E+00  1.55976E+00  2.21910E+00  4.46187E-01  2.85147E+00
 -8.44111E-01  2.88675E+00 -2.02037E+00  2.31433E+00 -2.81761E+00  1.24539E+00 -3.03670E+00 -1.02828E-01
 -2.58749E+00 -1.43178E+00 -1.53108E+00 -2.41146E+00 -9.71407E-02 -2.76224E+00  1.35153E+00 -2.34966E+00
  2.41461E+00 -1.25097E+00  2.78251E+00  2.47042E-01  2.34433E+00  1.73039E+00  1.22626E+00  2.79132E+00
 -2.56469E-01  3.15674E+00 -1.70903E+00  2.75976E+00 -2.77702E+00  1.73443E+00 -3.23090E+00  3.52023E-01
 -2.99711E+00 -1.06227E+00 -2.14806E+00 -2.19969E+00 -8.74946E-01 -2.81621E+00  5.43161E-01 -2.76878E+00
  1.77953E+00 -2.04897E+00  2.52187E+00 -8.07051E-01  2.55580E+00  6.56845E-01  1.84479E+00  1.95452E+00
  5.66028E-01  2.71971E+00 -9.27356E-01  2.72929E+00 -2.21418E+00  1.98306E+00 -2.94210E+00  7.03814E-01
 -2.93597E+00 -7.43084E-01 -2.23576E+00 -1.97255E+00 -1.05865E+00 -2.69160E+00  2.84496E-01 -2.76129E+00
  1.47637E+00 -2.20234E+00  2.25634E+00 -1.16514E+00  2.45693E+00  1.10362E-01  2.02686E+00  1.33384E+00
  1.04917E+00  2.21014E+00 -2.54745E-01  2.50129E+00 -1.55587E+00  2.09903E+00 -2.49534E+00  1.07996E+00
 -2.79409E+00 -2.92176E-01 -2.35276E+00 -1.63465E+00 -1.29429E+00 -2.56693E+00  7.52096E-02 -2.83617E+00
  1.37184E+00 -2.39374E+00  2.25858E+00 -1.39389E+00  2.53759E+00 -1.24950E-01  2.18187E+00  1.08766E+00
  1.31251E+00  1.96463E+00  1.49216E-01  2.32146E+00 -1.03973E+00  2.08737E+00 -1.98052E+00  1.31095E+00
 -2.43869E+00  1.60052E-01 -2.27351E+00 -1.09393E+00 -1.49207E+00 -2.12453E+00 -2.75297E-01 -2.63522E+00
  1.05234E+00 -2.45840E+00  2.11411E+00 -1.62541E+00  2.60413E+00 -3.69118E-01  2.39074E+00  9.49915E-01
  1.55506E+00  1.96430E+00  3.50961E-01  2.41548E+00 -8.88532E-01  2.21859E+00 -1.85326E+00  1.46118E+00
 -2.32777E+00  3.53612E-01 -2.22068E+00 -8.35516E-01 -1.56380E+00 -1.83458E+00 -4.99778E-01 -2.41099E+00
  7.35458E-01 -2.41042E+00  1.84525E+00 -1.79862E+00  2.53255E+00 -6.93395E-01  2.58441E+00  6.38767E-01
  1.95249E+00  1.84083E+00  7.89449E-01  2.57056E+00 -5.86191E-01  2.61531E+00 -1.79042E+00  1.96631E+00
 -2.49909E+00  8.18160E-01 -2.54538E+00 -5.03956E-01 -1.95327E+00 -1.65326E+00 -9.05136E-01 -2.35889E+00
  3.28264E-01 -2.48000E+00  1.46003E+00 -2.01389E+00  2.24063E+00 -1.07668E+00  2.49378E+00  1.23580E-01
  2.14625E+00  1.31694E+00  1.25494E+00  2.21458E+00  1.74887E-02  2.57322E+00 -1.25579E+00  2.27112E+00
 -2.21849E+00  1.36524E+00 -2.59573E+00  9.45394E-02 -2.28032E+00 -1.18539E+00 -1.37291E+00 -2.11664E+00
 -1.45623E-01 -2.45549E+00  1.05416E+00 -2.14221E+00  1.91543E+00 -1.30028E+00  2.24526E+00 -1.77031E-01
  1.99815E+00  9.38940E-01  1.26048E+00  1.78822E+00  2.14314E-01  2.18416E+00 -9.00251E-01  2.03582E+00
 -1.82175E+00  1.36336E+00 -2.31309E+00  3.07483E-01 -2.22094E+00 -8.80778E-01 -1.53469E+00 -1.88738E+00
 -4.14977E-01 -2.42074E+00  8.35195E-01 -2.30998E+00  1.85876E+00 -1.57311E+00  2.36181E+00 -4.19556E-01
  2.21040E+00  8.19044E-01  1.46620E+00  1.80000E+00  3.51138E-01  2.27446E+00 -8.34739E-01  2.14633E+00
 -1.80182E+00  1.47394E+00 -2.33406E+00  4.31676E-01 -2.31884E+00 -7.40543E-01 -1.75502E+00 -1.78222E+00
 -7.52973E-01 -2.45226E+00  4.73184E-01 -2.57341E+00  1.63417E+00 -2.08254E+00  2.42703E+00 -1.06975E+00
  2.62243E+00  2.21091E-01  2.14735E+00  1.44804E+00  1.12324E+00  2.27335E+00 -1.65304E-01  2.47403E+00
 -1.36296E+00  2.01331E+00 -2.15847E+00  1.04286E+00 -2.37353E+00 -1.59957E-01 -1.99524E+00 -1.28604E+00
 -1.15257E+00 -2.07834E+00 -6.22229E-02 -2.37995E+00  1.02720E+00 -2.14692E+00  1.87858E+00 -1.44178E+00
  2.30146E+00 -4.21688E-01  2.18860E+00  6.80332E-01  1.55268E+00  1.59335E+00  5.45303E-01  2.07279E+00
 -5.64942E-01  1.97813E+00 -1.46373E+00  1.33187E+00 -1.89228E+00  3.26063E-01 -1.73730E+00 -7.36120E-01
 -1.06834E+00 -1.54322E+00 -1.05777E-01 -1.87866E+00  8.62776E-01 -1.68098E+00  1.57737E+00 -1.04245E+00
  1.87310E+00 -1.59007E-01  1.70342E+00  7.36491E-01  1.12877E+00  1.42961E+00  2.91138E-01  1.75896E+00
 -6.11755E-01  1.63826E+00 -1.35507E+00  1.07599E+00 -1.72906E+00  1.90371E-01 -1.59730E+00 -7.97116E-01
 -9.54102E-01 -1.60631E+00  4.91680E-02 -1.97982E+00  1.13373E+00 -1.77448E+00  1.97779E+00 -1.02172E+00
  2.32469E+00  7.49201E-02  2.06850E+00  1.20720E+00  1.28161E+00  2.06473E+00  1.78648E-01  2.42820E+00
 -9.59000E-01  2.21930E+00 -1.86175E+00  1.50043E+00 -2.32745E+00  4.41046E-01 -2.24965E+00 -7.25549E-01
 -1.62941E+00 -1.74235E+00 -5.80238E-01 -2.36873E+00  6.77549E-01 -2.42864E+00  1.84750E+00 -1.86425E+00
  2.62251E+00 -7.75081E-01  2.77443E+00  5.84673E-01  2.23551E+00  1.86567E+00  1.13286E+00  2.72658E+00
 -2.45318E-01  2.94216E+00 -1.54098E+00  2.47106E+00 -2.43646E+00  1.45735E+00 -2.73944E+00  1.71943E-01
 -2.41596E+00 -1.07421E+00 -1.57375E+00 -2.00827E+00 -4.18147E-01 -2.44436E+00  7.95758E-01 -2.30423E+00
  1.80552E+00 -1.62272E+00  2.38327E+00 -5.45927E-01  2.38344E+00  6.83883E-01  1.78988E+00  1.76968E+00
  7.40442E-01  2.43148E+00 -4.94031E-01  2.49166E+00 -1.58277E+00  1.93935E+00 -2.23821E+00  9.40890E-01
 -2.30781E+00 -2.14283E-01 -1.81539E+00 -1.21092E+00 -9.37485E-01 -1.80659E+00  6.80769E-02 -1.89238E+00
  9.45252E-01 -1.49996E+00  1.50140E+00 -7.66987E-01  1.63504E+00  1.12376E-01  1.33841E+00  9.30680E-01
  6.90253E-01  1.49964E+00 -1.54171E-01  1.68009E+00 -9.83376E-01  1.41564E+00 -1.57164E+00  7.61945E-01
 -1.74256E+00 -1.08747E-01 -1.43405E+00 -9.45008E-01 -7.32990E-01 -1.49319E+00  1.44660E-01 -1.58627E+00
  9.26442E-01 -1.20491E+00  1.37887E+00 -4.81576E-01  1.38369E+00  3.52957E-01  9.64519E-01  1.05343E+00
  2.60605E-01  1.43551E+00 -5.29983E-01  1.41588E+00 -1.20785E+00  1.01370E+00 -1.61178E+00  3.29502E-01
 -1.64050E+00 -4.80324E-01 -1.26748E+00 -1.22707E+00 -5.54874E-01 -1.71851E+00  3.41388E-01 -1.80151E+00
  1.19223E+00 -1.41395E+00  1.75110E+00 -6.24465E-01  1.83354E+00  3.66883E-01  1.38877E+00  1.28025E+00
  5.28074E-01  1.84589E+00 -5.07627E-01  1.89590E+00 -1.42852E+00  1.41772E+00 -1.98913E+00  5.49246E-01
 -2.05560E+00 -4.75992E-01 -1.62688E+00 -1.40321E+00 -8.15142E-01 -2.01944E+00  1.93260E-01 -2.19008E+00
  1.17735E+00 -1.87331E+00  1.91638E+00 -1.12410E+00  2.22661E+00 -9.29052E-02  2.00509E+00  9.89276E-01
  1.27160E+00  1.85215E+00  1.86789E-01  2.25550E+00 -9.74765E-01  2.06787E+00 -1.89910E+00  1.32104E+00
 -2.33140E+00  2.10636E-01 -2.15839E+00 -9.62990E-01 -1.43975E+00 -1.89070E+00 -3.78555E-01 -2.34691E+00
  7.50596E-01 -2.24343E+00  1.68146E+00 -1.63307E+00  2.21517E+00 -6.75723E-01  2.24886E+00  4.09001E-01
  1.78224E+00  1.38512E+00  9.14282E-01  2.03738E+00 -1.67032E-01  2.20891E+00 -1.21071E+00  1.84161E+00
 -1.95392E+00  1.00731E+00 -2.19387E+00 -9.12805E-02 -1.85723E+00 -1.16532E+00 -1.03445E+00 -1.92364E+00
  4.25948E-02 -2.16598E+00  1.07529E+00 -1.84627E+00  1.79457E+00 -1.07926E+00  2.03872E+00 -9.13825E-02
  1.78505E+00  8.57573E-01  1.13333E+00  1.54715E+00  2.60799E-01  1.83987E+00 -6.26343E-01  1.69373E+00
 -1.33110E+00  1.15649E+00 -1.69518E+00  3.54069E-01 -1.62780E+00 -5.25692E-01 -1.13450E+00 -1.26318E+00
 -3.33039E-01 -1.65757E+00  5.62129E-01 -1.58920E+00  1.29522E+00 -1.06910E+00  1.65067E+00 -2.47650E-01
  1.52840E+00  6.29575E-01  9.78149E-01  1.30455E+00  1.77185E-01  1.59292E+00 -6.36725E-01  1.43716E+00
 -1.24456E+00  9.08932E-01 -1.50456E+00  1.69404E-01 -1.37414E+00 -5.86820E-01 -9.01212E-01 -1.17952E+00
 -2.02120E-01 -1.47280E+00  5.61025E-01 -1.39279E+00  1.20379E+00 -9.42310E-01  1.55221E+00 -2.12437E-01
  1.48833E+00  6.21243E-01  9.96929E-01  1.33177E+00  1.89568E-01  1.70431E+00 -7.14972E-01  1.61035E+00
 -1.45558E+00  1.05983E+00 -1.81580E+00  2.04096E-01 -1.69588E+00 -7.14607E-01 -1.13938E+00 -1.44489E+00
 -3.07610E-01 -1.80314E+00  5.80161E-01 -1.71667E+00  1.31069E+00 -1.22523E+00  1.72242E+00 -4.54139E-01
  1.72769E+00  4.21068E-01  1.32038E+00  1.20623E+00  5.78534E-01  1.71801E+00 -3.39238E-01  1.81860E+00
 -1.21444E+00  1.45569E+00 -1.81572E+00  6.94033E-01 -1.96629E+00 -2.83235E-01 -1.60786E+00 -1.21686E+00
 -8.30157E-01 -1.84947E+00  1.52441E-01 -2.00991E+00  1.07084E+00 -1.66768E+00  1.68784E+00 -9.35071E-01
  1.86544E+00 -2.05522E-02  1.58987E+00  8.41349E-01  9.55307E-01  1.45275E+00  1.24812E-01  1.68931E+00
 -7.10484E-01  1.51183E+00 -1.36431E+00  9.64077E-01 -1.68385E+00  1.66150E-01 -1.58064E+00 -6.99066E-01
 -1.06148E+00 -1.41615E+00 -2.44478E-01 -1.78894E+00  6.58023E-01 -1.70280E+00  1.39560E+00 -1.17187E+00
  1.75948E+00 -3.44941E-01  1.65354E+00  5.39261E-01  1.12478E+00  1.23156E+00  3.40696E-01  1.55261E+00
 -4.73375E-01  1.44121E+00 -1.10636E+00  9.56362E-01 -1.41430E+00  2.42669E-01 -1.34164E+00 -5.17918E-01
 -9.17513E-01 -1.14763E+00 -2.41337E-01 -1.50157E+00  5.33567E-01 -1.48936E+00  1.22158E+00 -1.09620E+00
  1.63992E+00 -3.99603E-01  1.65813E+00  4.32532E-01  1.24762E+00  1.17572E+00  5.06488E-01  1.61335E+00
 -3.59811E-01  1.61029E+00 -1.10148E+00  1.16359E+00 -1.50722E+00  4.05393E-01 -1.47179E+00 -4.44014E-01
