 $NMID ID='NAAG', FMTDAT='(8E13.5)'
 TRAMP=1., VOLUME=1. $END
  8.76237E+00  2.24074E-01  7.74945E+00  3.72912E+00  5.24486E+00  6.31912E+00  1.89018E+00  7.41362E+00
 -1.49316E+00  6.82989E+00 -4.12823E+00  4.79905E+00 -5.46644E+00  1.86991E+00 -5.28694E+00 -1.24906E+00
 -3.70893E+00 -3.85452E+00 -1.14009E+00 -5.38543E+00  1.81403E+00 -5.52270E+00  4.46759E+00 -4.25068E+00
  6.19452E+00 -1.87220E+00  6.57588E+00  1.04076E+00  5.51889E+00  3.77191E+00  3.30024E+00  5.64414E+00
  5.01306E-01  6.21002E+00 -2.15630E+00  5.38066E+00 -4.02129E+00  3.44162E+00 -4.69273E+00  9.50208E-01
 -4.10799E+00 -1.44172E+00 -2.52024E+00 -3.16950E+00 -3.94043E-01 -3.88265E+00  1.72947E+00 -3.49378E+00
  3.35365E+00 -2.16193E+00  4.11554E+00 -2.38321E-01  3.84615E+00  1.80634E+00  2.60643E+00  3.47006E+00
  6.90148E-01  4.32538E+00 -1.42517E+00  4.13051E+00 -3.18889E+00  2.91251E+00 -4.13003E+00  9.80730E-01
 -4.00219E+00 -1.15161E+00 -2.86187E+00 -2.92005E+00 -1.04503E+00 -3.88053E+00  9.48142E-01 -3.83356E+00
  2.61013E+00 -2.85836E+00  3.56239E+00 -1.25760E+00  3.62942E+00  5.49126E-01  2.84601E+00  2.13524E+00
  1.42116E+00  3.15009E+00 -3.14159E-01  3.37153E+00 -1.96406E+00  2.73979E+00 -3.13552E+00  1.37830E+00
 -3.52264E+00 -4.10841E-01 -2.99504E+00 -2.19684E+00 -1.65674E+00 -3.52300E+00  1.61528E-01 -4.03920E+00
  1.98991E+00 -3.61495E+00  3.36174E+00 -2.38279E+00  3.95495E+00 -6.90473E-01  3.67657E+00  1.01673E+00
  2.66315E+00  2.33151E+00  1.21178E+00  2.98494E+00 -3.17080E-01  2.88576E+00 -1.58420E+00  2.10739E+00
 -2.32658E+00  8.49863E-01 -2.39002E+00 -6.01060E-01 -1.75375E+00 -1.91594E+00 -5.48811E-01 -2.77657E+00
  9.46992E-01 -2.94968E+00  2.35870E+00 -2.36319E+00  3.31142E+00 -1.14990E+00  3.54716E+00  3.74158E-01
  3.01290E+00  1.80160E+00  1.87754E+00  2.76353E+00  4.68605E-01  3.04326E+00 -8.41267E-01  2.62759E+00
 -1.74666E+00  1.68307E+00 -2.07770E+00  4.81377E-01 -1.81237E+00 -6.84399E-01 -1.05075E+00 -1.56094E+00
  2.08390E-02 -1.96743E+00  1.16052E+00 -1.81406E+00  2.10216E+00 -1.12050E+00  2.60191E+00 -3.06626E-02
  2.50315E+00  1.19651E+00  1.79912E+00  2.23962E+00  6.58373E-01  2.80731E+00 -6.13176E-01  2.73798E+00
 -1.66845E+00  2.06060E+00 -2.23544E+00  9.84259E-01 -2.20197E+00 -1.80029E-01 -1.63444E+00 -1.12755E+00
 -7.31372E-01 -1.64908E+00  2.55614E-01 -1.66918E+00  1.09319E+00 -1.23412E+00  1.60716E+00 -4.74618E-01
  1.69647E+00  4.29465E-01  1.33909E+00  1.27368E+00  6.02011E-01  1.85357E+00 -3.52115E-01  2.00426E+00
 -1.28279E+00  1.65400E+00 -1.92842E+00  8.68377E-01 -2.09149E+00 -1.46989E-01 -1.71640E+00 -1.10194E+00
 -9.18717E-01 -1.72003E+00  5.39547E-02 -1.83686E+00  9.13274E-01 -1.45258E+00  1.43015E+00 -7.16900E-01
  1.49881E+00  1.38755E-01  1.14487E+00  8.83297E-01  4.89772E-01  1.34485E+00 -2.97648E-01  1.43253E+00
 -1.03774E+00  1.13305E+00 -1.56114E+00  5.03384E-01 -1.72864E+00 -3.30466E-01 -1.46316E+00 -1.17881E+00
 -7.88728E-01 -1.81710E+00  1.47851E-01 -2.04625E+00  1.09919E+00 -1.76734E+00  1.78940E+00 -1.03388E+00
  2.01108E+00 -4.82355E-02  1.70267E+00  9.04208E-01  9.68229E-01  1.55562E+00  3.18954E-02  1.74431E+00
 -8.46769E-01  1.45356E+00 -1.45405E+00  7.92973E-01 -1.66783E+00 -5.55069E-02 -1.46295E+00 -8.93217E-01
 -8.94275E-01 -1.54088E+00 -7.96980E-02 -1.85700E+00  8.10485E-01 -1.75457E+00  1.56971E+00 -1.22634E+00
  1.99331E+00 -3.69981E-01  1.93992E+00  6.11128E-01  1.39326E+00  1.45102E+00  4.89112E-01  1.90376E+00
 -5.16768E-01  1.83317E+00 -1.33353E+00  1.26646E+00 -1.73643E+00  3.83615E-01 -1.63820E+00 -5.51861E-01
 -1.10190E+00 -1.28558E+00 -2.99380E-01 -1.64566E+00  5.54851E-01 -1.57200E+00  1.26051E+00 -1.10542E+00
  1.66333E+00 -3.59557E-01  1.66861E+00  5.03525E-01  1.25308E+00  1.29124E+00  4.81776E-01  1.80496E+00
 -4.81868E-01  1.88378E+00 -1.39524E+00  1.46188E+00 -1.99655E+00  6.13275E-01 -2.09176E+00 -4.47874E-01
 -1.63111E+00 -1.42510E+00 -7.36023E-01 -2.03756E+00  3.40383E-01 -2.11581E+00  1.30138E+00 -1.65263E+00
  1.90204E+00 -7.90690E-01  2.01191E+00  2.38099E-01  1.62835E+00  1.18656E+00  8.52548E-01  1.84821E+00
 -1.46495E-01  2.08511E+00 -1.16196E+00  1.83851E+00 -1.97406E+00  1.13782E+00 -2.38314E+00  1.10295E-01
 -2.25855E+00 -1.02305E+00 -1.59156E+00 -1.98454E+00 -5.23688E-01 -2.51324E+00  6.76052E-01 -2.45254E+00
  1.68822E+00 -1.81209E+00  2.24661E+00 -7.71091E-01  2.22369E+00  3.82367E-01  1.66103E+00  1.34855E+00
  7.37584E-01  1.90587E+00 -3.00894E-01  1.95880E+00 -1.21431E+00  1.53666E+00 -1.81617E+00  7.61473E-01
 -1.99378E+00 -1.89337E-01 -1.71487E+00 -1.11175E+00 -1.03419E+00 -1.80066E+00 -9.83460E-02 -2.08502E+00
  8.67644E-01 -1.87564E+00  1.60717E+00 -1.20900E+00  1.90825E+00 -2.58724E-01  1.68102E+00  7.05149E-01
  9.98239E-01  1.40203E+00  7.41715E-02  1.63759E+00 -8.11758E-01  1.36777E+00 -1.41166E+00  7.02615E-01
 -1.58317E+00 -1.45881E-01 -1.31440E+00 -9.41099E-01 -7.02644E-01 -1.48785E+00  8.91993E-02 -1.66706E+00
  8.73398E-01 -1.44276E+00  1.46604E+00 -8.58258E-01  1.71170E+00 -3.30482E-02  1.51581E+00  8.44264E-01
  8.83105E-01  1.54289E+00 -5.70713E-02  1.84609E+00 -1.06410E+00  1.62521E+00 -1.84851E+00  8.99671E-01
 -2.16653E+00 -1.51307E-01 -1.90719E+00 -1.23905E+00 -1.13201E+00 -2.05998E+00 -5.02404E-02 -2.39327E+00
  1.05511E+00 -2.16114E+00  1.91392E+00 -1.43400E+00  2.33346E+00 -3.91656E-01  2.22673E+00  7.31630E-01
  1.61295E+00  1.69509E+00  6.07461E-01  2.28680E+00 -5.90779E-01  2.35541E+00 -1.72126E+00  1.84612E+00
 -2.50706E+00  8.33815E-01 -2.72518E+00 -4.68258E-01 -2.28271E+00 -1.74544E+00 -1.26409E+00 -2.66512E+00
  7.97675E-02 -2.98021E+00  1.40407E+00 -2.60988E+00  2.37682E+00 -1.66210E+00  2.77537E+00 -3.90797E-01
  2.53661E+00  8.88945E-01  1.75105E+00  1.88869E+00  6.18108E-01  2.40694E+00 -6.09378E-01  2.35380E+00
 -1.67242E+00  1.75174E+00 -2.34375E+00  7.27359E-01 -2.46535E+00 -5.02188E-01 -1.98910E+00 -1.65825E+00
 -1.00783E+00 -2.45603E+00  2.46301E-01 -2.68176E+00  1.45231E+00 -2.26607E+00  2.29252E+00 -1.31849E+00
  2.55308E+00 -1.00199E-01  2.19049E+00  1.05912E+00  1.33594E+00  1.86603E+00  2.39931E-01  2.14625E+00
 -8.13020E-01  1.87677E+00 -1.58187E+00  1.16652E+00 -1.91466E+00  2.08012E-01 -1.76153E+00 -7.73528E-01
 -1.16981E+00 -1.55969E+00 -2.74262E-01 -1.97067E+00  7.18101E-01 -1.89858E+00  1.56017E+00 -1.34230E+00
  2.02155E+00 -4.28074E-01  1.96008E+00  6.05836E-01  1.37944E+00  1.47018E+00  4.41273E-01  1.91621E+00
 -5.82067E-01  1.82095E+00 -1.39834E+00  1.22787E+00 -1.79102E+00  3.25129E-01 -1.67987E+00 -6.25545E-01
 -1.12717E+00 -1.37429E+00 -2.98763E-01 -1.74766E+00  5.92864E-01 -1.67571E+00  1.33838E+00 -1.18835E+00
  1.76542E+00 -3.98215E-01  1.76324E+00  5.18101E-01  1.30706E+00  1.34342E+00  4.79383E-01  1.85860E+00
 -5.28025E-01  1.89968E+00 -1.44920E+00  1.41847E+00 -2.01733E+00  5.17761E-01 -2.05374E+00 -5.64617E-01
 -1.53423E+00 -1.52564E+00 -6.01063E-01 -2.09569E+00  4.86064E-01 -2.12427E+00  1.43672E+00 -1.61846E+00
  2.01574E+00 -7.24930E-01  2.09689E+00  3.26741E-01  1.67537E+00  1.28904E+00  8.51113E-01  1.94727E+00
 -1.98218E-01  2.15154E+00 -1.24530E+00  1.83850E+00 -2.04665E+00  1.04984E+00 -2.39017E+00 -5.82697E-02
 -2.15448E+00 -1.23102E+00 -1.36060E+00 -2.16858E+00 -1.87472E-01 -2.61039E+00  1.06726E+00 -2.42135E+00
  2.07413E+00 -1.64189E+00  2.57390E+00 -4.77430E-01  2.45312E+00  7.68974E-01  1.76535E+00  1.79063E+00
  6.98090E-01  2.35902E+00 -4.91134E-01  2.36760E+00 -1.53955E+00  1.83564E+00 -2.22687E+00  8.87585E-01
 -2.40611E+00 -2.74818E-01 -2.02644E+00 -1.40263E+00 -1.15188E+00 -2.23848E+00  3.39890E-02 -2.57048E+00
  1.25381E+00 -2.29381E+00  2.20048E+00 -1.45660E+00  2.62575E+00 -2.62815E-01  2.42046E+00  9.79961E-01
  1.65086E+00  1.95310E+00  5.33916E-01  2.42352E+00 -6.36616E-01  2.30557E+00 -1.57963E+00  1.66826E+00
 -2.09625E+00  6.95358E-01 -2.10127E+00 -3.75493E-01 -1.62064E+00 -1.30821E+00 -7.72287E-01 -1.90697E+00
  2.56646E-01 -2.04275E+00  1.23600E+00 -1.67654E+00  1.93113E+00 -8.78783E-01  2.15772E+00  1.68391E-01
  1.84089E+00  1.20241E+00  1.05264E+00  1.94809E+00  2.97966E-03  2.20290E+00 -1.02064E+00  1.90510E+00
 -1.74470E+00  1.15342E+00 -1.99389E+00  1.69253E-01 -1.73485E+00 -7.79922E-01 -1.06773E+00 -1.46111E+00
 -1.79833E-01 -1.72993E+00  7.11680E-01 -1.54777E+00  1.40608E+00 -9.71600E-01  1.74920E+00 -1.33615E-01
  1.65496E+00  7.80052E-01  1.12571E+00  1.55546E+00  2.66903E-01  1.99091E+00 -7.19233E-01  1.95119E+00
 -1.57482E+00  1.41938E+00 -2.05908E+00  5.19872E-01 -2.02829E+00 -5.07537E-01 -1.48807E+00 -1.37970E+00
 -5.92744E-01 -1.86111E+00  4.08514E-01 -1.83571E+00  1.25340E+00 -1.33203E+00  1.74086E+00 -4.98288E-01
  1.77273E+00  4.52366E-01  1.35895E+00  1.29934E+00  5.99674E-01  1.85693E+00 -3.39298E-01  2.00060E+00
 -1.25175E+00  1.68571E+00 -1.92273E+00  9.63550E-01 -2.17353E+00 -1.30008E-02 -1.91515E+00 -1.00933E+00
 -1.19022E+00 -1.76315E+00 -1.77907E-01 -2.06246E+00  8.50867E-01 -1.81823E+00  1.61665E+00 -1.09864E+00
  1.92027E+00 -1.07269E-01  1.70049E+00  8.85838E-01  1.04003E+00  1.62907E+00  1.25352E-01  1.95581E+00
 -8.15174E-01  1.81310E+00 -1.56779E+00  1.25483E+00 -1.97101E+00  4.16306E-01 -1.93694E+00 -5.15001E-01
 -1.46517E+00 -1.32872E+00 -6.51545E-01 -1.82725E+00  3.17290E-01 -1.87176E+00  1.19670E+00 -1.42941E+00
  1.74678E+00 -6.00255E-01  1.80828E+00  3.97464E-01  1.36070E+00  1.28828E+00  5.33928E-01  1.82701E+00
 -4.34767E-01  1.87713E+00 -1.28024E+00  1.44776E+00 -1.79081E+00  6.77562E-01 -1.86031E+00 -2.20124E-01
 -1.49870E+00 -1.02264E+00 -8.10715E-01 -1.54905E+00  3.82072E-02 -1.68821E+00  8.54848E-01 -1.41030E+00
  1.44882E+00 -7.71269E-01  1.66730E+00  8.89645E-02  1.43537E+00  9.63751E-01  7.90370E-01  1.62228E+00
 -1.10176E-01  1.87429E+00 -1.02266E+00  1.63592E+00 -1.68939E+00  9.66728E-01 -1.92270E+00  5.64594E-02
 -1.66594E+00 -8.36529E-01 -1.00562E+00 -1.46956E+00 -1.33684E-01 -1.68719E+00  7.18695E-01 -1.45445E+00
  1.34569E+00 -8.48277E-01  1.60886E+00 -2.26438E-02  1.45389E+00  8.31928E-01  9.11700E-01  1.52296E+00
