 $NMID ID='PCho', FMTDAT='(8E13.5)'
 TRAMP=1., VOLUME=1. $END
  1.21419E+01  2.21811E-06  1.17003E+01  3.01571E+00  1.04661E+01  5.75696E+00  8.59008E+00  8.01960E+00
  6.25744E+00  9.68596E+00  3.63911E+00  1.07051E+01  8.79505E-01  1.10515E+01 -1.87901E+00  1.06998E+01
 -4.46364E+00  9.63682E+00 -6.66590E+00  7.90294E+00 -8.27751E+00  5.62794E+00 -9.14929E+00  3.02928E+00
 -9.23569E+00  3.66533E-01 -8.59597E+00 -2.12260E+00 -7.35360E+00 -4.26653E+00 -5.64382E+00 -5.96109E+00
 -3.58549E+00 -7.13684E+00 -1.29244E+00 -7.72536E+00  1.09246E+00 -7.65646E+00  3.37578E+00 -6.89201E+00
  5.33092E+00 -5.47181E+00  6.75104E+00 -3.53504E+00  7.50642E+00 -1.29674E+00  7.57039E+00  1.00945E+00
  6.99955E+00  3.18737E+00  5.88616E+00  5.10034E+00  4.31873E+00  6.65246E+00  2.37790E+00  7.75300E+00
  1.65429E-01  8.29908E+00 -2.16314E+00  8.19626E+00 -4.39548E+00  7.40557E+00 -6.30096E+00  5.98293E+00
 -7.69098E+00  4.08018E+00 -8.46436E+00  1.90326E+00 -8.61100E+00 -3.46616E-01 -8.17673E+00 -2.51207E+00
 -7.21915E+00 -4.47851E+00 -5.78838E+00 -6.14330E+00 -3.94511E+00 -7.38777E+00 -1.79746E+00 -8.08150E+00
  4.77897E-01 -8.12219E+00  2.65453E+00 -7.48523E+00  4.50989E+00 -6.24765E+00  5.88234E+00 -4.56762E+00
  6.69733E+00 -2.63212E+00  6.95050E+00 -6.06793E-01  6.66635E+00  1.38129E+00  5.86719E+00  3.22383E+00
  4.57682E+00  4.79864E+00  2.85411E+00  5.95809E+00  8.27109E-01  6.55552E+00 -1.30468E+00  6.49632E+00
 -3.30924E+00  5.77969E+00 -4.98157E+00  4.50200E+00 -6.18809E+00  2.81894E+00 -6.87097E+00  8.92592E-01
 -7.01719E+00 -1.14170E+00 -6.62149E+00 -3.17072E+00 -5.67538E+00 -5.07296E+00 -4.19136E+00 -6.69477E+00
 -2.24298E+00 -7.86003E+00  1.36349E-02 -8.41455E+00  2.35880E+00 -8.27844E+00  4.56208E+00 -7.47201E+00
  6.43764E+00 -6.09857E+00  7.86955E+00 -4.29744E+00  8.79692E+00 -2.20056E+00  9.17830E+00  7.91620E-02
  8.96866E+00  2.42582E+00  8.13058E+00  4.68977E+00  6.67309E+00  6.68043E+00  4.68784E+00  8.19745E+00
  2.35210E+00  9.08499E+00 -1.09019E-01  9.27575E+00 -2.47986E+00  8.79692E+00 -4.59625E+00  7.73733E+00
 -6.34966E+00  6.20153E+00 -7.65979E+00  4.28402E+00 -8.44457E+00  2.07895E+00 -8.61721E+00 -2.88362E-01
 -8.11741E+00 -2.63982E+00 -6.95550E+00 -4.75813E+00 -5.23620E+00 -6.43431E+00 -3.14158E+00 -7.52213E+00
 -8.81280E-01 -7.96604E+00  1.35887E+00 -7.78783E+00  3.43943E+00 -7.04635E+00  5.25308E+00 -5.80244E+00
  6.69352E+00 -4.11475E+00  7.63971E+00 -2.06622E+00  7.97457E+00  2.04539E-01  7.62935E+00  2.49794E+00
  6.62328E+00  4.58666E+00  5.06929E+00  6.27123E+00  3.13998E+00  7.42482E+00  1.01532E+00  8.00135E+00
 -1.15420E+00  8.00768E+00 -3.24906E+00  7.46552E+00 -5.15442E+00  6.39437E+00 -6.73501E+00  4.82805E+00
 -7.83879E+00  2.84981E+00 -8.33390E+00  6.14385E-01 -8.15693E+00 -1.66615E+00 -7.33956E+00 -3.77011E+00
 -5.99508E+00 -5.51994E+00 -4.27398E+00 -6.81015E+00 -2.31896E+00 -7.59651E+00 -2.47816E-01 -7.86170E+00
  1.83004E+00 -7.58839E+00  3.78430E+00 -6.76319E+00  5.45260E+00 -5.40867E+00  6.66429E+00 -3.61736E+00
  7.28876E+00 -1.55781E+00  7.27771E+00  5.57861E-01  6.67368E+00  2.52782E+00  5.58054E+00  4.20334E+00
  4.11774E+00  5.49678E+00  2.39040E+00  6.35701E+00  4.92781E-01  6.73774E+00 -1.46420E+00  6.58833E+00
 -3.33000E+00  5.87701E+00 -4.92197E+00  4.63008E+00 -6.06574E+00  2.95588E+00 -6.64557E+00  1.03194E+00
 -6.63283E+00 -9.40432E-01 -6.07569E+00 -2.78678E+00 -5.06029E+00 -4.38507E+00 -3.67289E+00 -5.65528E+00
 -1.98943E+00 -6.52913E+00 -9.58467E-02 -6.92981E+00  1.88244E+00 -6.78281E+00  3.77162E+00 -6.05303E+00
  5.37608E+00 -4.78159E+00  6.52842E+00 -3.09364E+00  7.13271E+00 -1.16814E+00  7.17485E+00  8.12362E-01
  6.69700E+00  2.70075E+00  5.75846E+00  4.39137E+00  4.41299E+00  5.79684E+00  2.71809E+00  6.82131E+00
  7.65018E-01  7.35763E+00 -1.29881E+00  7.31631E+00 -3.27918E+00  6.66834E+00 -4.97692E+00  5.47136E+00
 -6.23872E+00  3.85904E+00 -6.98616E+00  1.99924E+00 -7.20784E+00  4.80146E-02 -6.92576E+00 -1.87203E+00
 -6.16480E+00 -3.66027E+00 -4.94927E+00 -5.21024E+00 -3.32786E+00 -6.39474E+00 -1.40471E+00 -7.08225E+00
  6.52357E-01 -7.17852E+00  2.63925E+00 -6.66603E+00  4.36563E+00 -5.61406E+00  5.69769E+00 -4.15191E+00
  6.56923E+00 -2.42360E+00  6.95960E+00 -5.54206E-01  6.86092E+00  1.35256E+00  6.26291E+00  3.19105E+00
  5.16846E+00  4.83020E+00  3.62730E+00  6.11555E+00  1.75937E+00  6.90279E+00 -2.54387E-01  7.10365E+00
 -2.21336E+00  6.71425E+00 -3.94656E+00  5.80747E+00 -5.34075E+00  4.49581E+00 -6.33380E+00  2.89158E+00
 -6.88568E+00  1.09075E+00 -6.95477E+00 -8.12637E-01 -6.50154E+00 -2.69935E+00 -5.51878E+00 -4.41333E+00
 -4.06528E+00 -5.78210E+00 -2.27528E+00 -6.66132E+00 -3.32211E-01 -6.97627E+00  1.57908E+00 -6.73405E+00
  3.31265E+00 -6.00078E+00  4.77151E+00 -4.86223E+00  5.88774E+00 -3.39692E+00  6.59487E+00 -1.67880E+00
  6.81958E+00  1.97414E-01  6.50339E+00  2.09389E+00  5.64024E+00  3.83451E+00  4.30212E+00  5.24095E+00
  2.63141E+00  6.18003E+00  8.02276E-01  6.59344E+00 -1.02517E+00  6.49260E+00 -2.72997E+00  5.92669E+00
 -4.22323E+00  4.94944E+00 -5.42201E+00  3.60973E+00 -6.23118E+00  1.97020E+00 -6.55318E+00  1.35562E-01
 -6.32304E+00 -1.73701E+00 -5.54496E+00 -3.46003E+00 -4.30375E+00 -4.86129E+00 -2.74126E+00 -5.82566E+00
 -1.01251E+00 -6.30854E+00  7.50277E-01 -6.31635E+00  2.44492E+00 -5.87320E+00  3.97968E+00 -5.00096E+00
  5.24926E+00 -3.72791E+00  6.13182E+00 -2.11728E+00  6.51556E+00 -2.90106E-01  6.33988E+00  1.58036E+00
  5.62305E+00  3.30520E+00  4.45715E+00  4.72687E+00  2.97320E+00  5.74864E+00  1.30033E+00  6.33119E+00
 -4.54703E-01  6.46483E+00 -2.19831E+00  6.14306E+00 -3.82513E+00  5.35977E+00 -5.20376E+00  4.13289E+00
 -6.19110E+00  2.53493E+00 -6.67107E+00  7.03765E-01 -6.59355E+00 -1.17937E+00 -5.98797E+00 -2.93454E+00
 -4.94307E+00 -4.42359E+00 -3.56808E+00 -5.56333E+00 -1.96244E+00 -6.30853E+00 -2.12879E-01 -6.62379E+00
  1.58571E+00 -6.47040E+00  3.30805E+00 -5.82100E+00  4.79907E+00 -4.69206E+00  5.90401E+00 -3.16843E+00
  6.51187E+00 -1.39865E+00  6.58492E+00  4.40191E-01  6.15620E+00  2.18717E+00  5.29914E+00  3.72515E+00
  4.09283E+00  4.97745E+00  2.60734E+00  5.88352E+00  9.16699E-01  6.37809E+00 -8.75615E-01  6.39482E+00
 -2.62433E+00  5.89492E+00 -4.15943E+00  4.90065E+00 -5.32687E+00  3.50781E+00 -6.02876E+00  1.86558E+00
 -6.23856E+00  1.34760E-01 -5.98419E+00 -1.54944E+00 -5.31476E+00 -3.08854E+00 -4.27684E+00 -4.40465E+00
 -2.91705E+00 -5.41617E+00 -1.30589E+00 -6.03030E+00  4.40041E-01 -6.16311E+00  2.16003E+00 -5.77571E+00
  3.68077E+00 -4.90117E+00  4.86033E+00 -3.64182E+00  5.61817E+00 -2.13723E+00  5.93436E+00 -5.23484E-01
  5.82349E+00  1.09051E+00  5.30601E+00  2.61818E+00  4.40005E+00  3.97233E+00  3.13906E+00  5.04845E+00
  1.59925E+00  5.73327E+00 -8.80544E-02  5.93742E+00 -1.75412E+00  5.63149E+00 -3.23343E+00  4.86053E+00
 -4.40333E+00  3.72660E+00 -5.19933E+00  2.35117E+00 -5.60058E+00  8.42707E-01 -5.60151E+00 -7.10809E-01
 -5.19442E+00 -2.22481E+00 -4.37774E+00 -3.59597E+00 -3.18341E+00 -4.69856E+00 -1.70040E+00 -5.40837E+00
 -7.28022E-02 -5.64156E+00  1.53115E+00 -5.38329E+00  2.96181E+00 -4.68723E+00  4.11696E+00 -3.64705E+00
  4.94145E+00 -2.36078E+00  5.40424E+00 -9.11933E-01  5.47519E+00  6.22596E-01  5.12280E+00  2.14961E+00
  4.33649E+00  3.54536E+00  3.15655E+00  4.66739E+00  1.68734E+00  5.38986E+00  8.04231E-02  5.64119E+00
 -1.50454E+00  5.42009E+00 -2.93729E+00  4.78083E+00 -4.13113E+00  3.80026E+00 -5.02961E+00  2.55083E+00
 -5.58214E+00  1.09764E+00 -5.73214E+00 -4.82446E-01 -5.43063E+00 -2.07937E+00 -4.66710E+00 -3.54866E+00
 -3.49488E+00 -4.73775E+00 -2.03034E+00 -5.52641E+00 -4.23677E-01 -5.85640E+00  1.18126E+00 -5.73279E+00
  2.67322E+00 -5.19930E+00  3.97260E+00 -4.30805E+00  5.01060E+00 -3.10628E+00  5.71057E+00 -1.64812E+00
  5.99113E+00 -1.87481E-02  5.79287E+00  1.65246E+00  5.11100E+00  3.20561E+00  4.01023E+00  4.48689E+00
  2.60981E+00  5.38689E+00  1.04743E+00  5.85752E+00 -5.54834E-01  5.90005E+00 -2.10209E+00  5.53684E+00
 -3.51340E+00  4.79047E+00 -4.70024E+00  3.68609E+00 -5.55928E+00  2.27379E+00 -5.99073E+00  6.50665E-01
 -5.93259E+00 -1.03869E+00 -5.38824E+00 -2.62927E+00 -4.42771E+00 -3.97611E+00 -3.16153E+00 -4.98390E+00
 -1.70480E+00 -5.60959E+00 -1.54933E-01 -5.84122E+00  1.40509E+00 -5.67331E+00  2.88650E+00 -5.09964E+00
  4.17921E+00 -4.12988E+00  5.15912E+00 -2.81618E+00  5.71831E+00 -1.26702E+00  5.80017E+00  3.66410E-01
  5.41630E+00  1.92614E+00  4.63426E+00  3.28461E+00  3.54581E+00  4.36123E+00  2.23786E+00  5.11203E+00
  7.85079E-01  5.50570E+00 -7.35090E-01  5.50848E+00 -2.22188E+00  5.09212E+00 -3.54689E+00  4.26012E+00
 -4.57541E+00  3.07177E+00 -5.20298E+00  1.64355E+00 -5.38451E+00  1.23342E-01 -5.13761E+00 -1.34805E+00
 -4.52006E+00 -2.66461E+00 -3.59894E+00 -3.75730E+00 -2.43375E+00 -4.57512E+00 -1.08338E+00 -5.06498E+00
  3.72498E-01 -5.16998E+00  1.81913E+00 -4.85054E+00  3.11604E+00 -4.11388E+00  4.12902E+00 -3.02941E+00
  4.76624E+00 -1.71668E+00  4.99620E+00 -3.11787E-01  4.83790E+00  1.06683E+00  4.33333E+00  2.33285E+00
  3.52397E+00  3.42169E+00  2.44825E+00  4.26931E+00  1.15961E+00  4.80150E+00 -2.52563E-01  4.94653E+00
 -1.65966E+00  4.66461E+00 -2.91639E+00  3.97394E+00 -3.89785E+00  2.95367E+00 -4.52877E+00  1.72032E+00
 -4.78800E+00  3.92595E-01 -4.68883E+00 -9.33021E-01 -4.25308E+00 -2.18260E+00 -3.49948E+00 -3.28662E+00
 -2.45488E+00 -4.16293E+00 -1.17752E+00 -4.71916E+00  2.28607E-01 -4.87737E+00  1.62384E+00 -4.60577E+00
  2.86505E+00 -3.93563E+00  3.84138E+00 -2.95114E+00  4.49206E+00 -1.75886E+00  4.79823E+00 -4.57371E-01
  4.75907E+00  8.73940E-01  4.37353E+00  2.16352E+00  3.64266E+00  3.32788E+00  2.59090E+00  4.26430E+00
  1.28820E+00  4.86682E+00 -1.46792E-01  5.05838E+00 -1.56923E+00  4.81837E+00 -2.84445E+00  4.18719E+00
 -3.87628E+00  3.24540E+00 -4.61181E+00  2.08241E+00 -5.02409E+00  7.76254E-01 -5.09064E+00 -6.04084E-01
 -4.78705E+00 -1.98025E+00 -4.10250E+00 -3.24953E+00 -3.06538E+00 -4.29033E+00 -1.75855E+00 -4.98948E+00
