 $NMID ID='PCr', FMTDAT='(8E13.5)'
 TRAMP=1., VOLUME=1. $END
  5.10000E+00  5.57280E-16  4.88867E+00  1.27955E+00  4.31520E+00  2.40047E+00  3.48772E+00  3.26274E+00
  2.52442E+00  3.83935E+00  1.50867E+00  4.15098E+00  4.81836E-01  4.22029E+00 -5.26225E-01  4.04310E+00
 -1.45798E+00  3.59897E+00 -2.21580E+00  2.89219E+00 -2.69088E+00  1.98915E+00 -2.81544E+00  1.01999E+00
 -2.60142E+00  1.37845E-01 -2.13722E+00 -5.38781E-01 -1.54416E+00 -9.62828E-01 -9.23068E-01 -1.15186E+00
 -3.27274E-01 -1.14700E+00  2.22693E-01 -9.71294E-01  6.99647E-01 -6.19792E-01  1.04100E+00 -8.78502E-02
  1.15746E+00  5.86578E-01  9.76397E-01  1.30270E+00  4.89430E-01  1.91904E+00 -2.30924E-01  2.30662E+00
 -1.05911E+00  2.39851E+00 -1.87034E+00  2.20312E+00 -2.58361E+00  1.77532E+00 -3.16664E+00  1.16961E+00
 -3.60454E+00  4.11731E-01 -3.86170E+00 -4.91083E-01 -3.87061E+00 -1.51167E+00 -3.55985E+00 -2.56959E+00
 -2.90246E+00 -3.53322E+00 -1.94876E+00 -4.26106E+00 -8.17798E-01 -4.65663E+00  3.48556E-01 -4.70024E+00
  1.43821E+00 -4.43768E+00  2.39338E+00 -3.93696E+00  3.19416E+00 -3.24676E+00  3.81934E+00 -2.38698E+00
  4.21900E+00 -1.37586E+00  4.32370E+00 -2.69118E-01  4.08554E+00  8.23670E-01  3.52097E+00  1.76316E+00
  2.72201E+00  2.43203E+00  1.82497E+00  2.78017E+00  9.56656E-01  2.83305E+00  1.93769E-01  2.65960E+00
 -4.39149E-01  2.32485E+00 -9.37305E-01  1.86247E+00 -1.27820E+00  1.28536E+00 -1.41135E+00  6.22385E-01
 -1.28541E+00 -5.13678E-02 -8.92825E-01 -6.19107E-01 -2.97498E-01 -9.63297E-01  3.77911E-01 -1.01685E+00
  9.99072E-01 -7.89544E-01  1.47052E+00 -3.52235E-01  1.75670E+00  2.08316E-01  1.86291E+00  8.30563E-01
  1.79549E+00  1.48664E+00  1.53508E+00  2.15566E+00  1.04546E+00  2.78692E+00  3.12101E-01  3.28615E+00
 -6.19927E-01  3.54029E+00 -1.63963E+00  3.46677E+00 -2.60399E+00  3.05363E+00 -3.39102E+00  2.36246E+00
 -3.93715E+00  1.49296E+00 -4.23592E+00  5.35033E-01 -4.30389E+00 -4.57695E-01 -4.14335E+00 -1.45690E+00
 -3.73246E+00 -2.42419E+00 -3.05099E+00 -3.28352E+00 -2.12131E+00 -3.92747E+00 -1.03105E+00 -4.25726E+00
  8.32096E-02 -4.22998E+00  1.08364E+00 -3.87969E+00  1.87923E+00 -3.29744E+00  2.44310E+00 -2.58465E+00
  2.79084E+00 -1.81289E+00  2.94013E+00 -1.01681E+00  2.88467E+00 -2.20772E-01  2.60304E+00  5.26108E-01
  2.09492E+00  1.13822E+00  1.41504E+00  1.51847E+00  6.75508E-01  1.60479E+00  1.03967E-02  1.40518E+00
 -4.75533E-01  9.95992E-01 -7.40269E-01  4.83843E-01 -7.99444E-01 -4.18709E-02 -6.90324E-01 -5.33645E-01
 -4.34578E-01 -9.73525E-01 -2.88354E-02 -1.33820E+00  5.30663E-01 -1.57298E+00  1.21030E+00 -1.59881E+00
  1.92033E+00 -1.35050E+00  2.53376E+00 -8.19464E-01  2.93338E+00 -6.94314E-02  3.05627E+00  7.87387E-01
  2.90672E+00  1.63787E+00  2.53128E+00  2.40677E+00  1.97740E+00  3.06187E+00  1.26765E+00  3.58681E+00
  4.08274E-01  3.94701E+00 -5.76832E-01  4.07921E+00 -1.61599E+00  3.91589E+00 -2.59076E+00  3.42837E+00
 -3.37214E+00  2.65684E+00 -3.86956E+00  1.70376E+00 -4.06003E+00  6.93747E-01 -3.97912E+00 -2.73340E-01
 -3.68304E+00 -1.14493E+00 -3.21158E+00 -1.90189E+00 -2.57914E+00 -2.52389E+00 -1.79844E+00 -2.96464E+00
 -9.15562E-01 -3.15946E+00 -2.52528E-02 -3.06162E+00  7.49692E-01 -2.68088E+00  1.30428E+00 -2.09444E+00
  1.59203E+00 -1.42009E+00  1.63343E+00 -7.68559E-01  1.48811E+00 -2.06999E-01  1.21291E+00  2.43696E-01
  8.36936E-01  5.80515E-01  3.70400E-01  7.84876E-01 -1.62862E-01  8.12890E-01 -6.98029E-01  6.18928E-01
 -1.13248E+00  1.95465E-01 -1.36175E+00 -4.01616E-01 -1.32525E+00 -1.06339E+00 -1.03060E+00 -1.66925E+00
 -5.40497E-01 -2.13214E+00  6.69897E-02 -2.41803E+00  7.35310E-01 -2.52977E+00  1.43762E+00 -2.47190E+00
  2.15354E+00 -2.22645E+00  2.83633E+00 -1.76032E+00  3.40003E+00 -1.05923E+00  3.74091E+00 -1.62000E-01
  3.78127E+00  8.33014E-01  3.50570E+00  1.79731E+00  2.96481E+00  2.61937E+00  2.24445E+00  3.23855E+00
  1.42317E+00  3.64481E+00  5.48198E-01  3.84900E+00 -3.55439E-01  3.84962E+00 -1.25363E+00  3.62356E+00
 -2.07823E+00  3.14863E+00 -2.73199E+00  2.44017E+00 -3.12375E+00  1.57202E+00 -3.21084E+00  6.62891E-01
 -3.01871E+00 -1.65617E-01 -2.62416E+00 -8.32020E-01 -2.11427E+00 -1.31119E+00 -1.55043E+00 -1.61584E+00
 -9.61346E-01 -1.76078E+00 -3.66404E-01 -1.73937E+00  1.93060E-01 -1.53085E+00  6.42665E-01 -1.13243E+00
  8.96640E-01 -5.89874E-01  8.99098E-01 -5.08586E-04  6.55905E-01  5.17627E-01  2.33989E-01  8.71371E-01
 -2.71804E-01  1.02281E+00 -7.81026E-01  9.85576E-01 -1.25014E+00  7.93321E-01 -1.66221E+00  4.66426E-01
 -1.99607E+00  3.02946E-03 -2.20278E+00 -5.99484E-01 -2.21127E+00 -1.31080E+00 -1.96202E+00 -2.05035E+00
 -1.44544E+00 -2.70337E+00 -7.16721E-01 -3.16246E+00  1.24582E-01 -3.36765E+00  9.76531E-01 -3.31873E+00
  1.76972E+00 -3.05392E+00  2.47264E+00 -2.61320E+00  3.06792E+00 -2.01511E+00  3.52210E+00 -1.26376E+00
  3.77575E+00 -3.78919E-01  3.76474E+00  5.76726E-01  3.45875E+00  1.49774E+00  2.88858E+00  2.26760E+00
  2.14138E+00  2.80243E+00  1.32545E+00  3.07761E+00  5.28568E-01  3.12071E+00 -2.02700E-01  2.97829E+00
 -8.51324E-01  2.68279E+00 -1.39917E+00  2.24408E+00 -1.80467E+00  1.67021E+00 -2.00892E+00  9.98703E-01
 -1.96785E+00  3.10892E-01 -1.68681E+00 -2.85718E-01 -1.23129E+00 -6.97985E-01 -7.03744E-01 -8.83806E-01
 -2.01501E-01 -8.60447E-01  2.16179E-01 -6.80523E-01  5.31160E-01 -3.94804E-01  7.41655E-01 -2.95977E-02
  8.32350E-01  4.05959E-01  7.65207E-01  8.91138E-01  4.99956E-01  1.36889E+00  2.95854E-02  1.74801E+00
 -5.96522E-01  1.93463E+00 -1.28099E+00  1.87310E+00 -1.91481E+00  1.56839E+00 -2.41773E+00  1.07522E+00
 -2.75637E+00  4.63180E-01 -2.93051E+00 -2.16321E-01 -2.94206E+00 -9.37911E-01 -2.77325E+00 -1.68203E+00
 -2.39261E+00 -2.40564E+00 -1.78510E+00 -3.03029E+00 -9.82913E-01 -3.46059E+00 -7.20981E-02 -3.62317E+00
  8.32965E-01 -3.49945E+00  1.63136E+00 -3.12994E+00  2.26632E+00 -2.58752E+00  2.72576E+00 -1.93978E+00
  3.01638E+00 -1.22718E+00  3.13405E+00 -4.70674E-01  3.05512E+00  3.00642E-01  2.75613E+00  1.02694E+00
  2.24649E+00  1.62139E+00  1.58787E+00  2.00119E+00  8.82857E-01  2.12546E+00  2.38059E-01  2.01352E+00
 -2.74376E-01  1.73080E+00 -6.31902E-01  1.35274E+00 -8.45750E-01  9.32501E-01 -9.29325E-01  4.94265E-01
 -8.76897E-01  5.35503E-02 -6.69618E-01 -3.54789E-01 -3.03871E-01 -6.66156E-01  1.81093E-01 -8.04924E-01
  6.99788E-01 -7.21083E-01  1.14731E+00 -4.19122E-01  1.43986E+00  4.17628E-02  1.54236E+00  5.76576E-01
  1.46592E+00  1.11218E+00  1.24020E+00  1.60785E+00  8.83763E-01  2.04670E+00  3.95542E-01  2.40851E+00
 -2.26425E-01  2.64841E+00 -9.54946E-01  2.70145E+00 -1.71771E+00  2.51222E+00 -2.41087E+00  2.06934E+00
 -2.93584E+00  1.41947E+00 -3.23522E+00  6.49889E-01 -3.30467E+00 -1.48550E-01 -3.17455E+00 -9.12800E-01
 -2.87760E+00 -1.61302E+00 -2.42795E+00 -2.23192E+00 -1.82694E+00 -2.73779E+00 -1.08972E+00 -3.07528E+00
 -2.69955E-01 -3.18395E+00  5.39683E-01 -3.03250E+00  1.23515E+00 -2.64380E+00  1.73997E+00 -2.09141E+00
  2.02960E+00 -1.46893E+00  2.12587E+00 -8.52833E-01  2.06796E+00 -2.83613E-01  1.88281E+00  2.24427E-01
  1.57718E+00  6.56067E-01  1.15577E+00  9.74975E-01  6.49170E-01  1.12863E+00  1.27244E-01  1.07666E+00
 -3.15941E-01  8.21998E-01 -5.97933E-01  4.21073E-01 -6.80890E-01 -3.60340E-02 -5.79738E-01 -4.62855E-01
 -3.41421E-01 -8.06199E-01 -1.19220E-02 -1.04952E+00  3.84246E-01 -1.19128E+00  8.38062E-01 -1.21833E+00
  1.33060E+00 -1.09724E+00  1.81069E+00 -7.92107E-01  2.19628E+00 -2.96176E-01  2.40203E+00  3.47032E-01
  2.37584E+00  1.05046E+00  2.11949E+00  1.71544E+00  1.67969E+00  2.26782E+00  1.11748E+00  2.67466E+00
  4.78689E-01  2.93274E+00 -2.13597E-01  3.04115E+00 -9.41398E-01  2.98165E+00 -1.66574E+00  2.72358E+00
 -2.31548E+00  2.25046E+00 -2.80338E+00  1.58785E+00 -3.06050E+00  8.09879E-01 -3.06601E+00  1.72385E-02
 -2.85173E+00 -6.99880E-01 -2.47906E+00 -1.28950E+00 -2.00560E+00 -1.73908E+00 -1.46534E+00 -2.05282E+00
 -8.75033E-01 -2.22536E+00 -2.58639E-01 -2.23361E+00  3.32243E-01 -2.05394E+00  8.21114E-01 -1.69139E+00
  1.13381E+00 -1.19749E+00  1.23240E+00 -6.60927E-01  1.13218E+00 -1.75103E-01  8.89765E-01  1.96284E-01
  5.71411E-01  4.33305E-01  2.24046E-01  5.46298E-01 -1.31205E-01  5.47917E-01 -4.81291E-01  4.33868E-01
 -7.96251E-01  1.87786E-01 -1.01947E+00 -1.93724E-01 -1.08385E+00 -6.76185E-01 -9.44322E-01 -1.18361E+00
 -6.04039E-01 -1.62182E+00 -1.15263E-01 -1.91452E+00  4.45805E-01 -2.02832E+00  1.01253E+00 -1.97119E+00
  1.54660E+00 -1.76836E+00  2.03095E+00 -1.43581E+00  2.44574E+00 -9.72304E-01  2.74926E+00 -3.75681E-01
  2.88137E+00  3.30314E-01  2.78979E+00  1.08132E+00  2.46093E+00  1.78387E+00  1.93313E+00  2.34780E+00
  1.28185E+00  2.71864E+00  5.87003E-01  2.88878E+00 -9.51839E-02  2.88182E+00 -7.37545E-01  2.72406E+00
 -1.32399E+00  2.42550E+00 -1.82542E+00  1.98470E+00 -2.19120E+00  1.41230E+00 -2.36515E+00  7.53344E-01
 -2.31617E+00  8.83918E-02 -2.06092E+00 -4.90615E-01 -1.66157E+00 -9.15003E-01 -1.19900E+00 -1.16157E+00
 -7.39784E-01 -1.24833E+00 -3.18918E-01 -1.20909E+00  5.19163E-02 -1.06705E+00  3.60413E-01 -8.27302E-01
  5.75374E-01 -4.92622E-01  6.50612E-01 -8.84737E-02  5.49918E-01  3.24613E-01  2.75044E-01  6.63863E-01
 -1.24579E-01  8.55907E-01 -5.68904E-01  8.66464E-01 -9.80215E-01  7.08259E-01 -1.30986E+00  4.23117E-01
 -1.54181E+00  5.27395E-02 -1.67387E+00 -3.79878E-01 -1.69386E+00 -8.65591E-01 -1.57159E+00 -1.38669E+00
 -1.27431E+00 -1.89675E+00 -7.94879E-01 -2.32132E+00 -1.71046E-01 -2.58215E+00  5.19867E-01 -2.62979E+00
  1.18898E+00 -2.46257E+00  1.76811E+00 -2.11938E+00  2.22522E+00 -1.65276E+00  2.55470E+00 -1.10259E+00
  2.75327E+00 -4.88909E-01  2.80223E+00  1.72698E-01  2.67152E+00  8.47806E-01  2.34321E+00  1.47279E+00
  1.83658E+00  1.96860E+00  1.21468E+00  2.27132E+00  5.65288E-01  2.35908E+00 -3.19199E-02  2.25679E+00
 -5.30354E-01  2.01623E+00 -9.18174E-01  1.68645E+00 -1.19854E+00  1.29591E+00 -1.36608E+00  8.57627E-01
 -1.39933E+00  3.90903E-01 -1.27566E+00 -6.02313E-02 -9.97356E-01 -4.28926E-01 -6.07965E-01 -6.49398E-01
