 $NMID ID='PE', FMTDAT='(8E13.5)'
 TRAMP=1., VOLUME=1. $END
  3.01880E+00  5.44683E-05  2.93129E+00  6.71965E-01  2.66288E+00  1.25819E+00  2.28873E+00  1.71250E+00
  1.87846E+00  2.04834E+00  1.45641E+00  2.30910E+00  1.00058E+00  2.51998E+00  4.79923E-01  2.65879E+00
 -1.00033E-01  2.66832E+00 -6.79176E-01  2.50105E+00 -1.16755E+00  2.16205E+00 -1.49541E+00  1.71690E+00
 -1.65185E+00  1.25796E+00 -1.68372E+00  8.53151E-01 -1.65622E+00  5.14794E-01 -1.60517E+00  2.10349E-01
 -1.51684E+00 -9.45165E-02 -1.34964E+00 -3.94550E-01 -1.08031E+00 -6.37523E-01 -7.38210E-01 -7.57013E-01
 -4.00568E-01 -7.20806E-01 -1.50950E-01 -5.58207E-01 -3.11489E-02 -3.45266E-01 -2.17686E-02 -1.58450E-01
 -6.52247E-02 -3.08640E-02 -1.13077E-01  5.71187E-02 -1.61651E-01  1.47146E-01 -2.49229E-01  2.56748E-01
 -4.17589E-01  3.53899E-01 -6.67920E-01  3.72429E-01 -9.45525E-01  2.57231E-01 -1.16601E+00  5.36539E-03
 -1.26427E+00 -3.27959E-01 -1.23046E+00 -6.63257E-01 -1.10672E+00 -9.45388E-01 -9.48310E-01 -1.17102E+00
 -7.79065E-01 -1.37534E+00 -5.75204E-01 -1.58938E+00 -2.89536E-01 -1.80157E+00  1.02789E-01 -1.95373E+00
  5.72361E-01 -1.97533E+00  1.04246E+00 -1.83088E+00  1.43061E+00 -1.54495E+00  1.69444E+00 -1.18610E+00
  1.84829E+00 -8.21893E-01  1.93921E+00 -4.78531E-01  2.00156E+00 -1.34892E-01  2.02520E+00  2.45626E-01
  1.96169E+00  6.70744E-01  1.76378E+00  1.09717E+00  1.42790E+00  1.44848E+00  1.00704E+00  1.66038E+00
  5.83568E-01  1.71983E+00  2.21683E-01  1.66909E+00 -6.54981E-02  1.57195E+00 -3.10548E-01  1.46787E+00
 -5.53209E-01  1.34837E+00 -7.98907E-01  1.17295E+00 -1.00640E+00  9.11525E-01 -1.11425E+00  5.80394E-01
 -1.08624E+00  2.43422E-01 -9.41184E-01 -2.32536E-02 -7.44355E-01 -1.77185E-01 -5.66529E-01 -2.32241E-01
 -4.40947E-01 -2.41469E-01 -3.49870E-01 -2.53635E-01 -2.49851E-01 -2.76506E-01 -1.15578E-01 -2.74448E-01
  3.17469E-02 -2.01670E-01  1.33589E-01 -4.52591E-02  1.34248E-01  1.55302E-01  2.17938E-02  3.27682E-01
 -1.61165E-01  4.11263E-01 -3.45154E-01  3.93792E-01 -4.79348E-01  3.13157E-01 -5.61069E-01  2.23626E-01
 -6.27764E-01  1.52569E-01 -7.18455E-01  8.05651E-02 -8.34722E-01 -4.02033E-02 -9.31474E-01 -2.43598E-01
 -9.45039E-01 -5.15790E-01 -8.37701E-01 -7.96259E-01 -6.25230E-01 -1.01340E+00 -3.66735E-01 -1.12851E+00
 -1.24476E-01 -1.15557E+00  7.62205E-02 -1.14272E+00  2.57145E-01 -1.13008E+00  4.60527E-01 -1.11627E+00
  7.06500E-01 -1.05916E+00  9.67672E-01 -9.10222E-01  1.18069E+00 -6.56148E-01  1.28657E+00 -3.35922E-01
  1.26973E+00 -1.99972E-02  1.16653E+00  2.33204E-01  1.03720E+00  4.11192E-01  9.22337E-01  5.46806E-01
  8.16869E-01  6.84337E-01  6.80597E-01  8.38673E-01  4.76820E-01  9.78815E-01  2.09102E-01  1.04846E+00
 -7.22326E-02  1.00809E+00 -2.99350E-01  8.66589E-01 -4.30263E-01  6.78370E-01 -4.73981E-01  5.07831E-01
 -4.78867E-01  3.87720E-01 -4.93374E-01  3.02302E-01 -5.29005E-01  2.07419E-01 -5.53416E-01  7.15664E-02
 -5.18558E-01 -9.36549E-02 -4.02118E-01 -2.37138E-01 -2.30431E-01 -3.03412E-01 -6.50870E-02 -2.72842E-01
  3.70430E-02 -1.76501E-01  6.05766E-02 -7.44587E-02  3.78354E-02 -1.37660E-02  2.02695E-02  2.35773E-03
  3.70603E-02  1.13054E-02  7.23672E-02  5.68287E-02  7.83613E-02  1.50222E-01  1.39470E-02  2.56752E-01
 -1.20428E-01  3.17902E-01 -2.78517E-01  2.92797E-01 -3.98086E-01  1.87632E-01 -4.42580E-01  5.09535E-02
 -4.23515E-01 -6.15504E-02 -3.87137E-01 -1.26198E-01 -3.75859E-01 -1.65029E-01 -3.93982E-01 -2.24119E-01
 -4.03743E-01 -3.33378E-01 -3.54636E-01 -4.78676E-01 -2.23669E-01 -6.07728E-01 -3.59144E-02 -6.65527E-01
  1.50350E-01 -6.32734E-01  2.82892E-01 -5.38206E-01  3.49751E-01 -4.36384E-01  3.82942E-01 -3.66782E-01
  4.29287E-01 -3.26182E-01  5.10847E-01 -2.74374E-01  6.05160E-01 -1.68745E-01  6.60358E-01 -1.20519E-03
  6.33721E-01  1.90813E-01  5.24463E-01  3.47836E-01  3.75907E-01  4.28778E-01  2.45354E-01  4.37966E-01
  1.64321E-01  4.18618E-01  1.18984E-01  4.17956E-01  6.52554E-02  4.50538E-01 -3.32926E-02  4.87529E-01
 -1.73702E-01  4.79907E-01 -3.12311E-01  3.97804E-01 -3.94959E-01  2.56014E-01 -3.95924E-01  1.06197E-01
 -3.36202E-01  1.52476E-03 -2.67407E-01 -3.96646E-02 -2.33510E-01 -4.39700E-02 -2.39313E-01 -5.94510E-02
 -2.49332E-01 -1.16610E-01 -2.17630E-01 -2.03520E-01 -1.25746E-01 -2.73932E-01  2.13903E-04 -2.82159E-01
  1.06381E-01 -2.18233E-01  1.49222E-01 -1.16676E-01  1.26201E-01 -3.21994E-02  7.59764E-02 -6.53972E-04
  4.81472E-02 -1.46240E-02  6.55493E-02 -3.18772E-02  1.07604E-01 -9.99968E-03  1.27183E-01  5.92269E-02
  8.80203E-02  1.41840E-01 -5.80989E-03  1.86168E-01 -1.10772E-01  1.61230E-01 -1.74508E-01  8.00028E-02
 -1.73147E-01 -9.98357E-03 -1.27194E-01 -6.15792E-02 -8.42052E-02 -6.20577E-02 -8.15396E-02 -4.06539E-02
 -1.17501E-01 -4.41147E-02 -1.52694E-01 -9.89989E-02 -1.40473E-01 -1.89426E-01 -6.33317E-02 -2.67194E-01
  5.23630E-02 -2.86645E-01  1.54485E-01 -2.37956E-01  2.02416E-01 -1.53748E-01  1.95382E-01 -8.41773E-02
  1.70599E-01 -5.94261E-02  1.72875E-01 -6.79853E-02  2.18879E-01 -6.70376E-02  2.83219E-01 -1.68998E-02
  3.16887E-01  8.67084E-02  2.84087E-01  2.07096E-01  1.89561E-01  2.92005E-01  7.57771E-02  3.10834E-01
 -7.83731E-03  2.75641E-01 -4.03604E-02  2.30225E-01 -4.28054E-02  2.15754E-01 -5.95688E-02  2.39077E-01
 -1.22174E-01  2.67712E-01 -2.22934E-01  2.55235E-01 -3.18579E-01  1.77729E-01 -3.61144E-01  5.36390E-02
 -3.32816E-01 -6.80319E-02 -2.58460E-01 -1.42302E-01 -1.86499E-01 -1.59495E-01 -1.52707E-01 -1.49756E-01
 -1.54336E-01 -1.57634E-01 -1.54044E-01 -2.06206E-01 -1.10445E-01 -2.78031E-01 -1.19787E-02 -3.27408E-01
  1.11689E-01 -3.14627E-01  2.09457E-01 -2.36293E-01  2.44889E-01 -1.28779E-01  2.21445E-01 -4.22344E-02
  1.77959E-01 -4.77952E-03  1.57985E-01 -3.85667E-03  1.76369E-01  1.38359E-03  2.08351E-01  4.63097E-02
  2.09371E-01  1.31442E-01  1.50433E-01  2.19861E-01  4.21399E-02  2.63434E-01 -7.08871E-02  2.38062E-01
 -1.41069E-01  1.61355E-01 -1.51037E-01  7.94720E-02 -1.24025E-01  3.31488E-02 -1.03885E-01  2.86055E-02
 -1.20107E-01  3.51975E-02 -1.64463E-01  1.13462E-02 -1.96991E-01 -6.11328E-02 -1.76730E-01 -1.60493E-01
 -9.38808E-02 -2.38966E-01  2.10223E-02 -2.56705E-01  1.17906E-01 -2.10203E-01  1.62278E-01 -1.33852E-01
  1.58272E-01 -7.36255E-02  1.42448E-01 -5.29066E-02  1.53349E-01 -5.62830E-02  2.00109E-01 -4.34195E-02
  2.54024E-01  1.77188E-02  2.69525E-01  1.23660E-01  2.18668E-01  2.35003E-01  1.13047E-01  3.03244E-01
 -3.44745E-03  3.04711E-01 -8.55719E-02  2.56136E-01 -1.18050E-01  2.00319E-01 -1.23802E-01  1.72949E-01
 -1.43154E-01  1.75792E-01 -2.00086E-01  1.76501E-01 -2.81315E-01  1.35056E-01 -3.44196E-01  3.66223E-02
 -3.47557E-01 -9.42002E-02 -2.82190E-01 -2.08682E-01 -1.78023E-01 -2.67397E-01 -8.25834E-02 -2.66697E-01
 -2.70807E-02 -2.38480E-01 -5.62938E-03 -2.23723E-01  1.69011E-02 -2.40035E-01  7.46706E-02 -2.67909E-01
  1.71459E-01 -2.66037E-01  2.74556E-01 -2.04010E-01  3.36741E-01 -8.75132E-02  3.29859E-01  4.31529E-02
  2.64731E-01  1.40242E-01  1.82481E-01  1.81038E-01  1.23972E-01  1.81333E-01  1.00474E-01  1.80035E-01
  8.76370E-02  2.06884E-01  4.70776E-02  2.57941E-01 -4.10534E-02  2.97507E-01 -1.59432E-01  2.85036E-01
 -2.63172E-01  2.06617E-01 -3.10597E-01  8.71566E-02 -2.92075E-01 -2.60214E-02 -2.35314E-01 -9.58490E-02
 -1.83339E-01 -1.19948E-01 -1.61938E-01 -1.28629E-01 -1.61243E-01 -1.58332E-01 -1.45235E-01 -2.20919E-01
 -8.17634E-02 -2.92289E-01  2.98858E-02 -3.29044E-01  1.54954E-01 -3.00635E-01  2.45949E-01 -2.12688E-01
  2.75161E-01 -1.03885E-01  2.52579E-01 -1.87284E-02  2.15943E-01  2.32818E-02  2.00696E-01  3.89716E-02
  2.12730E-01  6.50600E-02  2.24552E-01  1.26752E-01  1.97646E-01  2.15423E-01  1.13944E-01  2.92479E-01
 -7.61205E-03  3.16601E-01 -1.22111E-01  2.73855E-01 -1.89137E-01  1.87957E-01 -1.99830E-01  1.03032E-01
 -1.80366E-01  5.18960E-02 -1.69516E-01  3.37773E-02 -1.87539E-01  1.80942E-02 -2.20073E-01 -2.88851E-02
 -2.29226E-01 -1.14987E-01 -1.83388E-01 -2.12929E-01 -8.30652E-02 -2.78112E-01  3.69165E-02 -2.80102E-01
  1.30646E-01 -2.24117E-01  1.72387E-01 -1.46420E-01  1.72472E-01 -8.72193E-02  1.66115E-01 -6.16092E-02
  1.83937E-01 -5.04230E-02  2.26755E-01 -1.76886E-02  2.63831E-01  5.88084E-02  2.55925E-01  1.67251E-01
  1.85670E-01  2.67367E-01  7.22122E-02  3.17811E-01 -4.10064E-02  3.04812E-01 -1.16187E-01  2.50623E-01
 -1.46361E-01  1.95565E-01 -1.57043E-01  1.67409E-01 -1.83430E-01  1.61290E-01 -2.40717E-01  1.45223E-01
 -3.10205E-01  8.68542E-02 -3.51836E-01 -1.90383E-02 -3.33711E-01 -1.43314E-01 -2.56266E-01 -2.41158E-01
 -1.52839E-01 -2.82727E-01 -6.61718E-02 -2.72777E-01 -1.85714E-02 -2.44669E-01  1.89982E-03 -2.33527E-01
  2.90207E-02 -2.48999E-01  8.95037E-02 -2.68256E-01  1.79727E-01 -2.54431E-01  2.65902E-01 -1.86376E-01
  3.07657E-01 -7.70588E-02  2.87277E-01  3.34700E-02  2.22535E-01  1.05355E-01  1.53504E-01  1.26007E-01
  1.13332E-01  1.16717E-01  1.05048E-01  1.14081E-01  1.01742E-01  1.40522E-01  6.97414E-02  1.86341E-01
 -3.04429E-03  2.16909E-01 -9.52576E-02  1.99454E-01 -1.65846E-01  1.29099E-01 -1.83131E-01  3.43272E-02
 -1.47304E-01 -4.23285E-02 -8.94667E-02 -7.38961E-02 -4.80367E-02 -6.66447E-02 -4.04289E-02 -5.27157E-02
 -5.13556E-02 -6.35412E-02 -4.64259E-02 -1.04371E-01 -5.23792E-04 -1.49288E-01  8.07213E-02 -1.60487E-01
  1.62778E-01 -1.17188E-01  2.06093E-01 -3.22602E-02  1.94060E-01  5.60583E-02  1.44051E-01  1.11131E-01
  9.33366E-02  1.23286E-01  7.06686E-02  1.14583E-01  7.50622E-02  1.19619E-01  7.77592E-02  1.57152E-01
  4.57219E-02  2.14171E-01 -3.12986E-02  2.54553E-01 -1.30752E-01  2.45764E-01 -2.12021E-01  1.83411E-01
 -2.44856E-01  9.50690E-02 -2.30128E-01  2.05145E-02 -1.97379E-01 -1.67141E-02 -1.81202E-01 -2.50166E-02
 -1.94456E-01 -3.60145E-02 -2.18600E-01 -7.82407E-02 -2.18397E-01 -1.53346E-01 -1.69736E-01 -2.32955E-01
 -7.94015E-02 -2.78605E-01  1.82414E-02 -2.69728E-01  8.52146E-02 -2.18543E-01  1.06501E-01 -1.60672E-01
  9.92722E-02 -1.28627E-01  9.79732E-02 -1.28225E-01  1.26741E-01 -1.35660E-01  1.80125E-01 -1.17281E-01
