 $NMID ID='sIns', FMTDAT='(8E13.5)'
 TRAMP=1., VOLUME=1. $END
  6.10000E+00  6.66134E-16  5.86095E+00  1.58145E+00  5.20525E+00  3.00274E+00  4.23475E+00  4.16054E+00
  3.05904E+00  5.01949E+00  1.75323E+00  5.58558E+00  3.53858E-01  5.86017E+00 -1.10736E+00  5.81239E+00
 -2.56169E+00  5.39209E+00 -3.88924E+00  4.57424E+00 -4.94731E+00  3.40055E+00 -5.62379E+00  1.98540E+00
 -5.87846E+00  4.79184E-01 -5.74380E+00 -9.86238E-01 -5.28673E+00 -2.33256E+00 -4.56098E+00 -3.52822E+00
 -3.58605E+00 -4.54924E+00 -2.36719E+00 -5.34149E+00 -9.38882E-01 -5.81638E+00  6.04048E-01 -5.88602E+00
  2.11508E+00 -5.51318E+00  3.44161E+00 -4.73919E+00  4.47722E+00 -3.66866E+00  5.18505E+00 -2.42179E+00
  5.57829E+00 -1.08813E+00  5.67572E+00  2.85948E-01  5.46807E+00  1.67034E+00  4.92185E+00  3.00935E+00
  4.01781E+00  4.20056E+00  2.79385E+00  5.11460E+00  1.35821E+00  5.64418E+00 -1.39788E-01  5.74853E+00
 -1.56255E+00  5.46178E+00 -2.82443E+00  4.86060E+00 -3.89309E+00  4.01588E+00 -4.75516E+00  2.96453E+00
 -5.37593E+00  1.72081E+00 -5.68685E+00  3.16151E-01 -5.61256E+00 -1.16619E+00 -5.11855E+00 -2.59143E+00
 -4.24373E+00 -3.81230E+00 -3.09304E+00 -4.72119E+00 -1.79423E+00 -5.27969E+00 -4.49230E-01 -5.50651E+00
  8.86116E-01 -5.43577E+00  2.18248E+00 -5.07876E+00  3.39643E+00 -4.41902E+00  4.44364E+00 -3.44403E+00
  5.20982E+00 -2.18805E+00  5.59449E+00 -7.51687E-01  5.55699E+00  7.19648E-01  5.13184E+00  2.08539E+00
  4.40288E+00  3.25390E+00  3.45571E+00  4.19158E+00  2.34351E+00  4.89413E+00  1.08997E+00  5.34519E+00
 -2.75854E-01  5.49648E+00 -1.68242E+00  5.28646E+00 -3.00840E+00  4.68434E+00 -4.11440E+00  3.72619E+00
 -4.89356E+00  2.51508E+00 -5.30608E+00  1.18329E+00 -5.37465E+00 -1.57126E-01 -5.14648E+00 -1.44150E+00
 -4.65199E+00 -2.64048E+00 -3.89174E+00 -3.72198E+00 -2.86079E+00 -4.61981E+00 -1.59012E+00 -5.23621E+00
 -1.71562E-01 -5.47934E+00  1.25592E+00 -5.30945E+00  2.55154E+00 -4.76043E+00  3.61920E+00 -3.92075E+00
  4.42371E+00 -2.88814E+00  4.96833E+00 -1.73067E+00  5.25361E+00 -4.81488E-01  5.25137E+00  8.31874E-01
  4.91482E+00  2.14948E+00  4.21793E+00  3.36473E+00  3.19376E+00  4.34839E+00  1.94154E+00  4.99627E+00
  5.95257E-01  5.26758E+00 -7.25403E-01  5.18755E+00 -1.94780E+00  4.81418E+00 -3.04188E+00  4.19525E+00
 -3.98577E+00  3.34799E+00 -4.73112E+00  2.27569E+00 -5.19771E+00  1.00659E+00 -5.30394E+00 -3.77056E-01
 -5.01192E+00 -1.74493E+00 -4.35407E+00 -2.95870E+00 -3.42122E+00 -3.91944E+00 -2.32048E+00 -4.59029E+00
 -1.13309E+00 -4.98052E+00  9.84332E-02 -5.10596E+00  1.34734E+00 -4.95788E+00  2.56486E+00 -4.50489E+00
  3.65998E+00 -3.72673E+00  4.51557E+00 -2.65340E+00  5.03205E+00 -1.37876E+00  5.16816E+00 -3.57233E-02
  4.95042E+00  1.25088E+00  4.44529E+00  2.40153E+00  3.71592E+00  3.38497E+00  2.79548E+00  4.18827E+00
  1.69596E+00  4.78023E+00  4.43478E-01  5.09877E+00 -8.89714E-01  5.07395E+00 -2.18382E+00  4.67068E+00
 -3.30544E+00  3.91938E+00 -4.15463E+00  2.91107E+00 -4.69288E+00  1.75953E+00 -4.93403E+00  5.57256E-01
 -4.90735E+00 -6.44285E-01 -4.62257E+00 -1.81837E+00 -4.06402E+00 -2.92675E+00 -3.21802E+00 -3.89442E+00
 -2.11181E+00 -4.61800E+00 -8.32555E-01 -5.00428E+00  4.90417E-01 -5.01229E+00  1.72966E+00 -4.66872E+00
  2.80008E+00 -4.04628E+00  3.66883E+00 -3.22120E+00  4.33060E+00 -2.24156E+00  4.77037E+00 -1.12837E+00
  4.94436E+00  9.37369E-02  4.79540E+00  1.36262E+00  4.29222E+00  2.57050E+00  3.46292E+00  3.59121E+00
  2.39679E+00  4.32555E+00  1.21160E+00  4.73368E+00  8.98040E-03  4.83264E+00 -1.15127E+00  4.66316E+00
 -2.24182E+00  4.25212E+00 -3.23405E+00  3.59948E+00 -4.06905E+00  2.69896E+00 -4.65841E+00  1.57537E+00
 -4.91700E+00  3.08211E-01 -4.80488E+00 -9.78986E-01 -4.34816E+00 -2.15867E+00 -3.62352E+00 -3.14166E+00
 -2.71799E+00 -3.89328E+00 -1.69318E+00 -4.41451E+00 -5.79181E-01 -4.70525E+00  6.00158E-01 -4.73977E+00
  1.79265E+00 -4.47458E+00  2.90364E+00 -3.88315E+00  3.81622E+00 -2.99116E+00  4.43378E+00 -1.88452E+00
  4.71554E+00 -6.82415E-01  4.68055E+00  5.06628E-01  4.37895E+00  1.61535E+00  3.85317E+00  2.61525E+00
  3.11843E+00  3.48634E+00  2.17642E+00  4.18548E+00  1.05003E+00  4.64013E+00 -1.89536E-01  4.77471E+00
 -1.42652E+00  4.55123E+00 -2.53568E+00  3.99455E+00 -3.42528E+00  3.18330E+00 -4.05883E+00  2.21285E+00
 -4.44230E+00  1.15680E+00 -4.58896E+00  5.40900E-02 -4.49062E+00 -1.07150E+00 -4.11794E+00 -2.17734E+00
 -3.45008E+00 -3.18261E+00 -2.51039E+00 -3.98145E+00 -1.38001E+00 -4.48158E+00 -1.77115E-01 -4.64186E+00
  9.85186E-01 -4.48230E+00  2.03323E+00 -4.06041E+00  2.93692E+00 -3.43231E+00  3.68381E+00 -2.62781E+00
  4.24590E+00 -1.65697E+00  4.56702E+00 -5.41336E-01  4.58240E+00  6.56526E-01  4.25691E+00  1.83028E+00
  3.61377E+00  2.85923E+00  2.73170E+00  3.65074E+00  1.71195E+00  4.16668E+00  6.38319E-01  4.41674E+00
 -4.41807E-01  4.42595E+00 -1.50409E+00  4.20267E+00 -2.51485E+00  3.73202E+00 -3.40748E+00  2.99961E+00
 -4.08857E+00  2.02669E+00 -4.47184E+00  8.88600E-01 -4.51651E+00 -2.99784E-01 -4.24270E+00 -1.42305E+00
 -3.71324E+00 -2.40236E+00 -2.99596E+00 -3.20580E+00 -2.13426E+00 -3.82728E+00 -1.14679E+00 -4.25303E+00
 -5.43548E-02 -4.44337E+00  1.08918E+00 -4.34536E+00  2.18820E+00 -3.92769E+00  3.12862E+00 -3.21171E+00
  3.81859E+00 -2.27458E+00  4.21866E+00 -1.22101E+00  4.34109E+00 -1.43063E-01  4.22091E+00  9.04055E-01
  3.88183E+00  1.89491E+00  3.32333E+00  2.80399E+00  2.53816E+00  3.57892E+00  1.54587E+00  4.13985E+00
  4.15141E-01  4.40803E+00 -7.44391E-01  4.34382E+00 -1.81730E+00  3.96677E+00 -2.72097E+00  3.34315E+00
 -3.42153E+00  2.55033E+00 -3.91810E+00  1.64407E+00 -4.21000E+00  6.51610E-01 -4.27380E+00 -4.06367E-01
 -4.06916E+00 -1.48452E+00 -3.56948E+00 -2.49890E+00 -2.79419E+00 -3.34387E+00 -1.81749E+00 -3.93007E+00
 -7.45245E-01 -4.21716E+00  3.24263E-01 -4.21897E+00  1.32886E+00 -3.97871E+00  2.24158E+00 -3.53400E+00
  3.04418E+00 -2.89828E+00  3.69819E+00 -2.07197E+00  4.13812E+00 -1.07338E+00  4.29407E+00  3.59837E-02
  4.12844E+00  1.15345E+00  3.65969E+00  2.16576E+00  2.95573E+00  2.98799E+00  2.10132E+00  3.58440E+00
  1.16309E+00  3.95816E+00  1.76657E-01  4.12034E+00 -8.36816E-01  4.06323E+00 -1.84014E+00  3.75954E+00
 -2.76163E+00  3.18820E+00 -3.50570E+00  2.36690E+00 -3.98704E+00  1.36566E+00 -4.16508E+00  2.89370E-01
 -4.05433E+00 -7.59597E-01 -3.70437E+00 -1.71311E+00 -3.16505E+00 -2.54236E+00 -2.46312E+00 -3.23540E+00
 -1.60700E+00 -3.76709E+00 -6.14307E-01 -4.08669E+00  4.60895E-01 -4.13433E+00  1.52434E+00 -3.87529E+00
  2.46697E+00 -3.32669E+00  3.20309E+00 -2.55644E+00  3.69530E+00 -1.65449E+00  3.94980E+00 -6.96702E-01
  3.98790E+00  2.73365E-01  3.81675E+00  1.23354E+00  3.42231E+00  2.15420E+00  2.78977E+00  2.97626E+00
  1.93535E+00  3.61541E+00  9.23970E-01  3.99197E+00 -1.42452E-01  4.06579E+00 -1.15953E+00  3.85139E+00
 -2.05437E+00  3.40295E+00 -2.79615E+00  2.78071E+00 -3.37818E+00  2.02383E+00 -3.78785E+00  1.14888E+00
 -3.98926E+00  1.73321E-01 -3.93346E+00 -8.56231E-01 -3.58951E+00 -1.85505E+00 -2.97304E+00 -2.72013E+00
 -2.15057E+00 -3.36659E+00 -1.21504E+00 -3.75573E+00 -2.49787E-01 -3.89577E+00  6.94324E-01 -3.81675E+00
  1.59365E+00 -3.53955E+00  2.42546E+00 -3.06328E+00  3.14322E+00 -2.37999E+00  3.67491E+00 -1.50481E+00
  3.94783E+00 -4.96875E-01  3.92305E+00  5.46607E-01  3.61458E+00  1.52131E+00  3.07950E+00  2.35088E+00
  2.38655E+00  3.00243E+00  1.58610E+00  3.47358E+00  7.02832E-01  3.76315E+00 -2.45360E-01  3.84987E+00
 -1.21915E+00  3.69639E+00 -2.14417E+00  3.27635E+00 -2.92511E+00  2.60398E+00 -3.47945E+00  1.74312E+00
 -3.76766E+00  7.87722E-01 -3.79921E+00 -1.73337E-01 -3.61118E+00 -1.08268E+00 -3.23689E+00 -1.91485E+00
 -2.68820E+00 -2.65320E+00 -1.96451E+00 -3.26347E+00 -1.08026E+00 -3.68657E+00 -8.84237E-02 -3.85803E+00
  9.20042E-01 -3.74097E+00  1.84284E+00 -3.34848E+00  2.60152E+00 -2.73903E+00  3.16131E+00 -1.98787E+00
  3.52310E+00 -1.15522E+00  3.69600E+00 -2.73668E-01  3.67281E+00  6.37990E-01  3.42819E+00  1.54733E+00
  2.94115E+00  2.39087E+00  2.22464E+00  3.08239E+00  1.33887E+00  3.54320E+00  3.76839E-01  3.73361E+00
 -5.68911E-01  3.66354E+00 -1.43549E+00  3.37559E+00 -2.19541E+00  2.91398E+00 -2.83724E+00  2.30268E+00
 -3.33844E+00  1.54872E+00 -3.65322E+00  6.66369E-01 -3.72638E+00 -2.97776E-01 -3.52389E+00 -1.26026E+00
 -3.05777E+00 -2.12265E+00 -2.38644E+00 -2.80586E+00 -1.58970E+00 -3.27344E+00 -7.36116E-01 -3.52871E+00
  1.34286E-01 -3.58972E+00  1.00132E+00 -3.46256E+00  1.83897E+00 -3.13404E+00  2.59485E+00 -2.58919E+00
  3.19299E+00 -1.84000E+00  3.55992E+00 -9.42248E-01  3.65646E+00  1.37711E-02  3.49246E+00  9.33759E-01
  3.11447E+00  1.75043E+00  2.57593E+00  2.43417E+00  1.91212E+00  2.97788E+00  1.13775E+00  3.37000E+00
  2.67441E-01  3.57807E+00 -6.58570E-01  3.55696E+00 -1.56532E+00  3.27637E+00 -2.35990E+00  2.74716E+00
 -2.96402E+00  2.02647E+00 -3.34000E+00  1.19672E+00 -3.49275E+00  3.33223E-01 -3.44786E+00 -5.17205E-01
 -3.22371E+00 -1.33262E+00 -2.81912E+00 -2.09276E+00 -2.22572E+00 -2.75634E+00 -1.45485E+00 -3.25846E+00
 -5.57349E-01 -3.53216E+00  3.80758E-01 -3.53951E+00  1.26529E+00 -3.28987E+00  2.02578E+00 -2.83229E+00
  2.63052E+00 -2.22773E+00  3.07590E+00 -1.52162E+00  3.36037E+00 -7.36359E-01  3.46461E+00  1.12621E-01
  3.35413E+00  9.91267E-01  3.00310E+00  1.83380E+00  2.42134E+00  2.55430E+00  1.66366E+00  3.07673E+00
  8.13284E-01  3.36266E+00 -4.94855E-02  3.41789E+00 -8.71787E-01  3.27416E+00 -1.62967E+00  2.96091E+00
 -2.30792E+00  2.48859E+00 -2.87604E+00  1.85581E+00 -3.28081E+00  1.07375E+00 -3.46287E+00  1.87907E-01
 -3.38634E+00 -7.21267E-01 -3.05984E+00 -1.56148E+00 -2.53354E+00 -2.26040E+00 -1.87413E+00 -2.78440E+00
 -1.13602E+00 -3.13252E+00 -3.48960E-01 -3.31215E+00  4.70332E-01 -3.31660E+00  1.29364E+00 -3.12238E+00
  2.06480E+00 -2.70883E+00  2.70615E+00 -2.08494E+00  3.14524E+00 -1.30233E+00  3.34354E+00 -4.43312E-01
  3.30713E+00  4.08541E-01  3.07250E+00  1.19527E+00  2.67877E+00  1.89076E+00  2.14747E+00  2.48410E+00
