 $NMID ID='Tau', FMTDAT='(8E13.5)'
 TRAMP=1., VOLUME=1. $END
  3.92162E+00  2.88865E-07  3.74859E+00  1.04146E+00  3.28968E+00  1.95482E+00  2.63528E+00  2.66771E+00
  1.87632E+00  3.17214E+00  1.06310E+00  3.49620E+00  2.02684E-01  3.65688E+00 -7.05774E-01  3.63132E+00
 -1.62727E+00  3.36933E+00 -2.47481E+00  2.83762E+00 -3.13586E+00  2.06180E+00 -3.52382E+00  1.13318E+00
 -3.61781E+00  1.73321E-01 -3.46215E+00 -7.18854E-01 -3.12726E+00 -1.50018E+00 -2.66164E+00 -2.17438E+00
 -2.07099E+00 -2.75075E+00 -1.33880E+00 -3.20432E+00 -4.71035E-01 -3.46973E+00  4.71233E-01 -3.47478E+00
  1.37845E+00 -3.18925E+00  2.13602E+00 -2.65213E+00  2.67423E+00 -1.95628E+00  2.98928E+00 -1.20120E+00
  3.12165E+00 -4.47856E-01  3.10972E+00  2.92236E-01  2.95471E+00  1.02813E+00  2.62363E+00  1.74518E+00
  2.08735E+00  2.38138E+00  1.36390E+00  2.84455E+00  5.32670E-01  3.05889E+00 -2.93318E-01  3.00724E+00
 -1.01805E+00  2.73775E+00 -1.60023E+00  2.33033E+00 -2.05189E+00  1.84779E+00 -2.40115E+00  1.30788E+00
 -2.64914E+00  6.95547E-01 -2.75504E+00  4.31042E-03 -2.66108E+00 -7.26782E-01 -2.33872E+00 -1.41081E+00
 -1.82058E+00 -1.94897E+00 -1.19307E+00 -2.27961E+00 -5.54040E-01 -2.40463E+00  3.41626E-02 -2.37470E+00
  5.62674E-01 -2.24512E+00  1.05363E+00 -2.03598E+00  1.51631E+00 -1.72630E+00  1.91686E+00 -1.28565E+00
  2.18592E+00 -7.17833E-01  2.25921E+00 -8.21346E-02  2.12099E+00  5.25789E-01  1.81743E+00  1.02048E+00
  1.42969E+00  1.36727E+00  1.02617E+00  1.58764E+00  6.29084E-01  1.72684E+00  2.19110E-01  1.80906E+00
 -2.27153E-01  1.81470E+00 -6.96876E-01  1.69685E+00 -1.12991E+00  1.42397E+00 -1.44655E+00  1.01576E+00
 -1.59408E+00  5.43934E-01 -1.57765E+00  9.62536E-02 -1.45247E+00 -2.70300E-01 -1.28344E+00 -5.53217E-01
 -1.10231E+00 -7.88446E-01 -8.94262E-01 -1.00806E+00 -6.22798E-01 -1.20463E+00 -2.73070E-01 -1.32970E+00
  1.20524E-01 -1.32784E+00  4.84433E-01 -1.18017E+00  7.47108E-01 -9.24152E-01  8.80940E-01 -6.34039E-01
  9.13984E-01 -3.76102E-01  9.03130E-01 -1.71508E-01  8.89283E-01  6.08558E-03  8.68354E-01  1.97546E-01
  7.99571E-01  4.15828E-01  6.44088E-01  6.26955E-01  4.03858E-01  7.69239E-01  1.30520E-01  7.96388E-01
 -1.03191E-01  7.11864E-01 -2.48587E-01  5.68347E-01 -3.09257E-01  4.32426E-01 -3.31624E-01  3.40745E-01
 -3.65457E-01  2.80123E-01 -4.24414E-01  2.05887E-01 -4.76409E-01  8.37149E-02 -4.70705E-01 -7.73479E-02
 -3.80749E-01 -2.26167E-01 -2.29752E-01 -3.04375E-01 -7.91475E-02 -2.88539E-01  1.18333E-02 -2.07733E-01
  2.53885E-02 -1.23147E-01 -6.02125E-03 -8.49408E-02 -2.74625E-02 -9.86130E-02 -4.61983E-03 -1.25778E-01
  5.04749E-02 -1.18129E-01  9.03528E-02 -5.83050E-02  7.10282E-02  2.36902E-02 -1.09623E-02  7.11776E-02
 -1.11851E-01  4.30301E-02 -1.69717E-01 -5.45163E-02 -1.47717E-01 -1.70595E-01 -5.91431E-02 -2.45048E-01
  4.42709E-02 -2.49910E-01  1.11650E-01 -2.06071E-01  1.30038E-01 -1.63068E-01  1.31292E-01 -1.57864E-01
  1.63937E-01 -1.84251E-01  2.51709E-01 -1.96306E-01  3.70606E-01 -1.43387E-01  4.62229E-01 -1.01722E-02
  4.73679E-01  1.68611E-01  3.94217E-01  3.30063E-01  2.61331E-01  4.25260E-01  1.31982E-01  4.50192E-01
  4.09861E-02  4.42637E-01 -2.19903E-02  4.47947E-01 -9.96637E-02  4.80225E-01 -2.28692E-01  5.08682E-01
 -4.05131E-01  4.79732E-01 -5.80423E-01  3.58213E-01 -6.91400E-01  1.56530E-01 -7.02074E-01 -7.03889E-02
 -6.26084E-01 -2.60670E-01 -5.13300E-01 -3.85027E-01 -4.11123E-01 -4.60849E-01 -3.29957E-01 -5.30857E-01
 -2.38935E-01 -6.23178E-01 -9.48326E-02 -7.23671E-01  1.18130E-01 -7.81895E-01  3.68203E-01 -7.46518E-01
  5.91442E-01 -6.03555E-01  7.31380E-01 -3.88626E-01  7.73600E-01 -1.63959E-01  7.49696E-01  2.25838E-02
  7.08220E-01  1.65847E-01  6.75105E-01  2.98197E-01  6.33737E-01  4.55478E-01  5.39774E-01  6.40590E-01
  3.59270E-01  8.12894E-01  1.00931E-01  9.11999E-01 -1.82310E-01  8.98333E-01 -4.24051E-01  7.80175E-01
 -5.84804E-01  6.06953E-01 -6.72118E-01  4.34038E-01 -7.25963E-01  2.85598E-01 -7.81149E-01  1.43301E-01
 -8.35781E-01 -3.11477E-02 -8.49944E-01 -2.57349E-01 -7.75741E-01 -5.11380E-01 -5.95875E-01 -7.34210E-01
 -3.41446E-01 -8.67569E-01 -7.52216E-02 -8.90664E-01  1.47319E-01 -8.30490E-01  3.10242E-01 -7.38375E-01
  4.39003E-01 -6.50789E-01  5.71269E-01 -5.64119E-01  7.19536E-01 -4.42267E-01  8.54439E-01 -2.50896E-01
  9.21788E-01  8.13715E-03  8.80687E-01  2.88770E-01  7.34041E-01  5.25781E-01  5.28396E-01  6.74513E-01
  3.23177E-01  7.35852E-01  1.52334E-01  7.48188E-01  6.96729E-03  7.53019E-01 -1.48574E-01  7.60610E-01
 -3.40028E-01  7.41854E-01 -5.54419E-01  6.52395E-01 -7.41510E-01  4.70520E-01 -8.44849E-01  2.19794E-01
 -8.39316E-01 -4.10659E-02 -7.47056E-01 -2.53876E-01 -6.19993E-01 -3.95762E-01 -5.02247E-01 -4.87358E-01
 -4.00780E-01 -5.68911E-01 -2.86128E-01 -6.62980E-01 -1.22154E-01 -7.52401E-01  9.82807E-02 -7.90446E-01
  3.39300E-01 -7.35526E-01  5.40749E-01 -5.84146E-01  6.55989E-01 -3.77037E-01  6.80600E-01 -1.73643E-01
  6.50726E-01 -1.39414E-02  6.12701E-01  1.03960E-01  5.87140E-01  2.14112E-01  5.54696E-01  3.48869E-01
  4.74033E-01  5.07107E-01  3.18072E-01  6.48983E-01  1.00684E-01  7.21516E-01 -1.26770E-01  6.95802E-01
 -3.06838E-01  5.87840E-01 -4.11980E-01  4.47286E-01 -4.58435E-01  3.22624E-01 -4.87965E-01  2.28921E-01
 -5.31734E-01  1.42222E-01 -5.83946E-01  2.43208E-02 -6.05277E-01 -1.41362E-01 -5.53447E-01 -3.30418E-01
 -4.17614E-01 -4.89649E-01 -2.30383E-01 -5.71894E-01 -4.81147E-02 -5.67418E-01  8.58380E-02 -5.08378E-01
  1.67529E-01 -4.43212E-01  2.28940E-01 -4.00435E-01  3.07768E-01 -3.69175E-01  4.13765E-01 -3.10934E-01
  5.17411E-01 -1.93318E-01  5.69635E-01 -1.98481E-02  5.37713E-01  1.67058E-01  4.30192E-01  3.12473E-01
  2.91958E-01  3.85053E-01  1.73133E-01  3.95858E-01  9.51700E-02  3.86010E-01  3.94917E-02  3.92830E-01
 -3.31170E-02  4.20275E-01 -1.47484E-01  4.36045E-01 -2.90256E-01  3.97438E-01 -4.15614E-01  2.86179E-01
 -4.76343E-01  1.25677E-01 -4.56906E-01 -3.25458E-02 -3.83636E-01 -1.43180E-01 -3.04471E-01 -1.96506E-01
 -2.53638E-01 -2.20935E-01 -2.27922E-01 -2.57170E-01 -1.92281E-01 -3.23869E-01 -1.10237E-01 -4.00998E-01
  2.42631E-02 -4.43548E-01  1.77904E-01 -4.15219E-01  2.98936E-01 -3.16532E-01  3.52356E-01 -1.86070E-01
  3.42910E-01 -7.38421E-02  3.08788E-01 -6.82306E-03  2.90984E-01  2.74879E-02  3.01675E-01  6.73668E-02
  3.15523E-01  1.43740E-01  2.90370E-01  2.52997E-01  2.01473E-01  3.56512E-01  6.31822E-02  4.07349E-01
 -7.84825E-02  3.84023E-01 -1.76889E-01  3.05854E-01 -2.16172E-01  2.18410E-01 -2.19449E-01  1.60092E-01
 -2.27962E-01  1.35116E-01 -2.67193E-01  1.13152E-01 -3.25791E-01  5.56315E-02 -3.63282E-01 -5.14629E-02
 -3.40715E-01 -1.83369E-01 -2.50974E-01 -2.91809E-01 -1.25782E-01 -3.38340E-01 -1.40516E-02 -3.20705E-01
  5.21177E-02 -2.72455E-01  7.82450E-02 -2.36323E-01  9.96046E-02 -2.31625E-01  1.50953E-01 -2.40371E-01
  2.37029E-01 -2.22474E-01  3.26325E-01 -1.48369E-01  3.72945E-01 -2.41792E-02  3.50050E-01  1.09766E-01
  2.69649E-01  2.06058E-01  1.73842E-01  2.42612E-01  1.04183E-01  2.36058E-01  7.23184E-02  2.26241E-01
  5.39637E-02  2.43836E-01  1.05189E-02  2.85741E-01 -7.83010E-02  3.16923E-01 -1.95751E-01  2.97276E-01
 -2.97581E-01  2.13085E-01 -3.42719E-01  8.92130E-02 -3.22029E-01 -2.72616E-02 -2.63554E-01 -9.96630E-02
 -2.10444E-01 -1.26077E-01 -1.88407E-01 -1.37275E-01 -1.87300E-01 -1.70068E-01 -1.70681E-01 -2.36546E-01
 -1.05893E-01 -3.12637E-01  8.29332E-03 -3.54748E-01  1.37559E-01 -3.31924E-01  2.34702E-01 -2.49201E-01
  2.72085E-01 -1.44541E-01  2.59512E-01 -6.16787E-02  2.34263E-01 -1.93849E-02  2.31063E-01 -2.36288E-04
  2.54865E-01  3.28642E-02  2.77089E-01  1.05210E-01  2.58080E-01  2.07925E-01  1.78681E-01  3.01806E-01
  5.69050E-02  3.44586E-01 -6.29948E-02  3.21082E-01 -1.40903E-01  2.53555E-01 -1.67842E-01  1.84561E-01
 -1.69414E-01  1.45366E-01 -1.83370E-01  1.33800E-01 -2.28541E-01  1.18159E-01 -2.88816E-01  6.39850E-02
 -3.24350E-01 -3.67916E-02 -3.01502E-01 -1.56588E-01 -2.18831E-01 -2.49950E-01 -1.09455E-01 -2.85056E-01
 -1.79552E-02 -2.65277E-01  3.07561E-02 -2.24679E-01  4.72389E-02 -2.01065E-01  6.62915E-02 -2.07083E-01
  1.17473E-01 -2.21252E-01  1.99937E-01 -2.05591E-01  2.80770E-01 -1.36344E-01  3.18189E-01 -2.43729E-02
  2.92064E-01  9.03188E-02  2.18761E-01  1.65932E-01  1.39108E-01  1.87529E-01  8.86445E-02  1.75537E-01
  7.26007E-02  1.67907E-01  6.43750E-02  1.89646E-01  2.84204E-02  2.32910E-01 -5.00306E-02  2.62719E-01
 -1.51094E-01  2.43918E-01 -2.32841E-01  1.68864E-01 -2.60934E-01  6.48284E-02 -2.32969E-01 -2.45609E-02
 -1.79226E-01 -6.98802E-02 -1.39386E-01 -7.55081E-02 -1.32893E-01 -7.36573E-02 -1.45344E-01 -9.76078E-02
 -1.41055E-01 -1.54596E-01 -9.21000E-02 -2.18984E-01 -1.65454E-03 -2.50885E-01  9.61436E-02 -2.26136E-01
  1.59811E-01 -1.54896E-01  1.69838E-01 -7.48050E-02  1.41653E-01 -2.38679E-02  1.12597E-01 -1.35044E-02
  1.12897E-01 -2.20081E-02  1.42667E-01 -1.31435E-02  1.72298E-01  3.44092E-02  1.65810E-01  1.09195E-01
  1.09355E-01  1.74293E-01  2.31987E-02  1.94282E-01 -5.19686E-02  1.61449E-01 -8.40785E-02  1.01464E-01
 -7.22213E-02  5.42504E-02 -4.57614E-02  4.45580E-02 -4.08732E-02  6.44260E-02 -7.23743E-02  8.06613E-02
 -1.22205E-01  6.14846E-02 -1.53212E-01  2.01991E-03 -1.37712E-01 -7.07509E-02 -7.91265E-02 -1.17345E-01
 -1.02775E-02 -1.14807E-01  3.03853E-02 -7.34757E-02  2.66879E-02 -2.88699E-02 -4.25261E-03 -1.48930E-02
 -2.60868E-02 -3.86389E-02 -1.15856E-02 -7.57864E-02  3.62444E-02 -8.99216E-02  8.62529E-02 -6.10241E-02
  1.02788E-01 -1.46156E-03  7.29250E-02  5.26380E-02  1.66311E-02  6.81022E-02 -2.78171E-02  3.93099E-02
 -3.21383E-02 -7.89714E-03  1.30320E-03 -3.58734E-02  4.20212E-02 -2.34794E-02  5.50653E-02  1.83551E-02
  2.78139E-02  5.54911E-02 -2.03894E-02  5.70258E-02 -5.29973E-02  1.92102E-02 -4.41620E-02 -3.13008E-02
  1.38757E-03 -5.73108E-02  5.15480E-02 -3.90060E-02  7.06837E-02  1.11744E-02  4.60781E-02  5.79203E-02
 -2.95786E-03  6.95297E-02 -4.01013E-02  4.14414E-02 -3.96915E-02 -9.16773E-04 -6.07675E-03 -2.19984E-02
